time;Sampling Frequency;ECG;Pulse
0;100;512;522
0.01;100;505;523
0.02;100;510;524
0.03;100;508;522
0.04;100;509;519
0.05;100;505;518
0.06;100;500;518
0.07;100;476;516
0.08;100;540;514
0.09;100;671;512
0.1;100;764;512
0.11;100;541;512
0.12;100;467;510
0.13;100;455;510
0.14;100;463;510
0.15;100;468;511
0.16;100;481;511
0.17;100;482;512
0.18;100;489;512
0.19;100;491;513
0.2;100;500;517
0.21;100;504;518
0.22;100;505;519
0.23;100;509;519
0.24;100;514;518
0.25;100;517;519
0.26;100;521;519
0.27;100;527;519
0.28;100;537;518
0.29;100;542;516
0.3;100;551;517
0.31;100;557;515
0.32;100;562;518
0.33;100;554;523
0.34;100;554;527
0.35;100;534;531
0.36;100;516;538
0.37;100;495;543
0.38;100;484;548
0.39;100;472;551
0.4;100;472;555
0.41;100;466;555
0.42;100;472;552
0.43;100;472;549
0.44;100;471;544
0.45;100;472;538
0.46;100;480;531
0.47;100;480;524
0.48;100;481;517
0.49;100;484;512
0.5;100;486;506
0.51;100;486;503
0.52;100;490;498
0.53;100;488;496
0.54;100;490;494
0.55;100;488;493
0.56;100;494;490
0.57;100;491;492
0.58;100;497;495
0.59;100;499;495
0.6;100;505;499
0.61;100;504;501
0.62;100;509;504
0.63;100;511;509
0.64;100;517;513
0.65;100;513;519
0.66;100;519;521
0.67;100;519;523
0.68;100;519;524
0.69;100;517;526
0.7;100;521;526
0.71;100;525;524
0.72;100;528;526
0.73;100;527;523
0.74;100;516;521
0.75;100;508;519
0.76;100;510;516
0.77;100;509;513
0.78;100;511;512
0.79;100;505;509
0.8;100;508;508
0.81;100;508;508
0.82;100;504;507
0.83;100;477;507
0.84;100;528;508
0.85;100;664;505
0.86;100;780;506
0.87;100;609;506
0.88;100;475;507
0.89;100;455;510
0.9;100;459;512
0.91;100;465;514
0.92;100;472;515
0.93;100;478;516
0.94;100;484;517
0.95;100;487;517
0.96;100;495;518
0.97;100;494;520
0.98;100;498;518
0.99;100;502;518
1;100;511;517
1.01;100;511;516
1.02;100;518;516
1.03;100;521;513
1.04;100;528;511
1.05;100;533;511
1.06;100;547;511
1.07;100;552;512
1.08;100;556;515
1.09;100;555;517
1.1;100;552;523
1.11;100;540;529
1.12;100;522;538
1.13;100;502;547
1.14;100;490;553
1.15;100;473;559
1.16;100;472;561
1.17;100;467;561
1.18;100;473;561
1.19;100;468;557
1.2;100;470;550
1.21;100;472;543
1.22;100;477;536
1.23;100;475;527
1.24;100;475;519
1.25;100;478;512
1.26;100;479;507
1.27;100;480;502
1.28;100;480;497
1.29;100;484;493
1.3;100;485;491
1.31;100;485;490
1.32;100;491;493
1.33;100;496;494
1.34;100;497;497
1.35;100;497;499
1.36;100;504;503
1.37;100;508;507
1.38;100;509;511
1.39;100;508;516
1.4;100;514;519
1.41;100;513;521
1.42;100;513;524
1.43;100;521;525
1.44;100;517;525
1.45;100;516;527
1.46;100;517;525
1.47;100;516;523
1.48;100;517;523
1.49;100;519;519
1.5;100;523;516
1.51;100;518;515
1.52;100;520;513
1.53;100;507;511
1.54;100;503;510
1.55;100;504;509
1.56;100;506;508
1.57;100;506;506
1.58;100;508;505
1.59;100;503;506
1.6;100;511;507
1.61;100;500;508
1.62;100;479;508
1.63;100;552;509
1.64;100;704;510
1.65;100;784;511
1.66;100;557;510
1.67;100;467;510
1.68;100;455;510
1.69;100;459;511
1.7;100;467;513
1.71;100;476;513
1.72;100;480;515
1.73;100;484;514
1.74;100;487;513
1.75;100;490;514
1.76;100;494;515
1.77;100;498;515
1.78;100;506;514
1.79;100;504;513
1.8;100;510;512
1.81;100;515;512
1.82;100;521;513
1.83;100;529;512
1.84;100;543;512
1.85;100;548;513
1.86;100;558;513
1.87;100;559;517
1.88;100;558;521
1.89;100;550;527
1.9;100;536;533
1.91;100;519;543
1.92;100;499;547
1.93;100;484;554
1.94;100;481;558
1.95;100;471;559
1.96;100;468;560
1.97;100;468;557
1.98;100;473;554
1.99;100;472;547
2;100;474;540
2.01;100;476;532
2.02;100;478;525
2.03;100;477;519
2.04;100;480;512
2.05;100;483;505
2.06;100;481;499
2.07;100;483;496
2.08;100;485;494
2.09;100;483;494
2.1;100;487;492
2.11;100;491;496
2.12;100;496;495
2.13;100;497;497
2.14;100;500;501
2.15;100;506;504
2.16;100;508;508
2.17;100;504;511
2.18;100;515;515
2.19;100;511;518
2.2;100;516;521
2.21;100;516;522
2.22;100;518;523
2.23;100;517;524
2.24;100;516;525
2.25;100;514;525
2.26;100;515;523
2.27;100;514;520
2.28;100;511;521
2.29;100;510;516
2.3;100;519;512
2.31;100;519;510
2.32;100;519;508
2.33;100;511;508
2.34;100;502;508
2.35;100;504;508
2.36;100;506;508
2.37;100;508;508
2.38;100;509;508
2.39;100;509;509
2.4;100;509;508
2.41;100;504;509
2.42;100;482;508
2.43;100;512;510
2.44;100;641;509
2.45;100;767;509
2.46;100;660;511
2.47;100;478;511
2.48;100;463;513
2.49;100;457;513
2.5;100;467;514
2.51;100;467;515
2.52;100;476;516
2.53;100;478;515
2.54;100;484;515
2.55;100;490;515
2.56;100;495;515
2.57;100;501;516
2.58;100;503;514
2.59;100;505;515
2.6;100;511;512
2.61;100;513;511
2.62;100;524;512
2.63;100;529;514
2.64;100;536;512
2.65;100;545;511
2.66;100;555;513
2.67;100;562;515
2.68;100;561;518
2.69;100;553;522
2.7;100;543;528
2.71;100;528;535
2.72;100;504;540
2.73;100;484;548
2.74;100;478;554
2.75;100;471;555
2.76;100;470;558
2.77;100;465;555
2.78;100;475;554
2.79;100;472;547
2.8;100;473;542
2.81;100;472;536
2.82;100;476;529
2.83;100;480;523
2.84;100;480;516
2.85;100;480;508
2.86;100;484;503
2.87;100;480;499
2.88;100;486;497
2.89;100;482;495
2.9;100;486;492
2.91;100;488;493
2.92;100;492;492
2.93;100;494;494
2.94;100;497;496
2.95;100;497;499
2.96;100;502;504
2.97;100;506;508
2.98;100;510;513
2.99;100;509;517
3;100;519;519
3.01;100;515;524
3.02;100;521;525
3.03;100;521;526
3.04;100;520;525
3.05;100;515;527
3.06;100;516;527
3.07;100;516;522
3.08;100;518;522
3.09;100;517;521
3.1;100;521;516
3.11;100;524;515
3.12;100;511;513
3.13;100;500;511
3.14;100;503;509
3.15;100;502;508
3.16;100;507;506
3.17;100;500;506
3.18;100;505;505
3.19;100;505;504
3.2;100;506;505
3.21;100;481;507
3.22;100;528;508
3.23;100;646;508
3.24;100;758;512
3.25;100;571;510
3.26;100;464;511
3.27;100;464;511
3.28;100;464;512
3.29;100;476;512
3.3;100;480;514
3.31;100;481;513
3.32;100;488;514
3.33;100;490;514
3.34;100;500;516
3.35;100;499;516
3.36;100;508;515
3.37;100;509;517
3.38;100;514;515
3.39;100;515;517
3.4;100;517;514
3.41;100;526;513
3.42;100;536;513
3.43;100;540;511
3.44;100;552;513
3.45;100;558;512
3.46;100;564;513
3.47;100;560;515
3.48;100;557;519
3.49;100;537;523
3.5;100;519;527
3.51;100;494;535
3.52;100;479;541
3.53;100;466;548
3.54;100;463;551
3.55;100;460;555
3.56;100;465;552
3.57;100;466;550
3.58;100;473;545
3.59;100;470;542
3.6;100;473;535
3.61;100;472;528
3.62;100;479;522
3.63;100;478;516
3.64;100;482;509
3.65;100;483;504
3.66;100;481;501
3.67;100;481;497
3.68;100;486;495
3.69;100;483;497
3.7;100;491;497
3.71;100;491;497
3.72;100;492;500
3.73;100;495;500
3.74;100;501;505
3.75;100;502;506
3.76;100;504;509
3.77;100;508;513
3.78;100;516;518
3.79;100;512;521
3.8;100;513;524
3.81;100;515;525
3.82;100;526;526
3.83;100;530;527
3.84;100;528;527
3.85;100;519;528
3.86;100;511;526
3.87;100;506;523
3.88;100;510;518
3.89;100;505;515
3.9;100;511;514
3.91;100;508;514
3.92;100;508;509
3.93;100;508;508
3.94;100;487;508
3.95;100;495;506
3.96;100;598;508
3.97;100;719;507
3.98;100;669;507
3.99;100;466;507
4;100;469;508
4.01;100;460;509
4.02;100;471;509
4.03;100;475;509
4.04;100;485;513
4.05;100;486;511
4.06;100;491;513
4.07;100;492;511
4.08;100;500;512
4.09;100;502;514
4.1;100;507;514
4.11;100;510;514
4.12;100;514;514
4.13;100;516;515
4.14;100;525;513
4.15;100;529;515
4.16;100;537;515
4.17;100;545;515
4.18;100;558;515
4.19;100;560;513
4.2;100;561;519
4.21;100;556;519
4.22;100;540;522
4.23;100;523;527
4.24;100;499;534
4.25;100;479;539
4.26;100;468;545
4.27;100;464;550
4.28;100;463;551
4.29;100;458;552
4.3;100;469;551
4.31;100;467;547
4.32;100;472;545
4.33;100;478;538
4.34;100;483;532
4.35;100;478;527
4.36;100;480;521
4.37;100;482;511
4.38;100;483;508
4.39;100;483;501
4.4;100;485;497
4.41;100;483;496
4.42;100;488;494
4.43;100;489;494
4.44;100;497;495
4.45;100;492;497
4.46;100;500;498
4.47;100;496;502
4.48;100;505;506
4.49;100;507;511
4.5;100;509;512
4.51;100;513;516
4.52;100;515;522
4.53;100;513;521
4.54;100;527;526
4.55;100;524;525
4.56;100;525;525
4.57;100;513;526
4.58;100;514;526
4.59;100;508;524
4.6;100;515;524
4.61;100;512;521
4.62;100;513;519
4.63;100;509;517
4.64;100;510;513
4.65;100;505;513
4.66;100;480;510
4.67;100;523;507
4.68;100;656;508
4.69;100;767;507
4.7;100;610;506
4.71;100;473;505
4.72;100;461;506
4.73;100;459;505
4.74;100;473;505
4.75;100;473;506
4.76;100;480;509
4.77;100;489;511
4.78;100;492;510
4.79;100;497;512
4.8;100;506;510
4.81;100;508;514
4.82;100;515;513
4.83;100;521;517
4.84;100;524;517
4.85;100;529;514
4.86;100;533;513
4.87;100;540;511
4.88;100;552;512
4.89;100;560;516
4.9;100;574;514
4.91;100;573;518
4.92;100;576;520
4.93;100;565;525
4.94;100;555;529
4.95;100;534;534
4.96;100;512;541
4.97;100;495;547
4.98;100;489;550
4.99;100;482;554
5;100;484;551
5.01;100;484;550
5.02;100;485;550
5.03;100;487;545
5.04;100;489;540
5.05;100;493;535
5.06;100;495;527
5.07;100;495;520
5.08;100;498;516
5.09;100;499;508
5.1;100;504;505
5.11;100;501;503
5.12;100;503;501
5.13;100;505;501
5.14;100;509;500
5.15;100;508;499
5.16;100;513;497
5.17;100;514;499
5.18;100;514;502
5.19;100;516;508
5.2;100;524;508
5.21;100;521;511
5.22;100;526;514
5.23;100;524;516
5.24;100;527;519
5.25;100;529;519
5.26;100;530;519
5.27;100;535;524
5.28;100;537;523
5.29;100;533;524
5.3;100;524;521
5.31;100;519;522
5.32;100;524;518
5.33;100;516;517
5.34;100;521;517
5.35;100;516;513
5.36;100;514;515
5.37;100;518;510
5.38;100;508;509
5.39;100;484;508
5.4;100;517;508
5.41;100;656;508
5.42;100;783;509
5.43;100;636;510
5.44;100;478;508
5.45;100;456;512
5.46;100;457;512
5.47;100;463;512
5.48;100;472;509
5.49;100;473;510
5.5;100;474;508
5.51;100;478;508
5.52;100;486;512
5.53;100;487;510
5.54;100;494;513
5.55;100;495;511
5.56;100;504;512
5.57;100;500;515
5.58;100;509;514
5.59;100;513;515
5.6;100;522;514
5.61;100;530;516
5.62;100;540;518
5.63;100;551;515
5.64;100;553;518
5.65;100;553;523
5.66;100;553;528
5.67;100;528;531
5.68;100;513;540
5.69;100;489;544
5.7;100;482;549
5.71;100;462;553
5.72;100;458;555
5.73;100;457;552
5.74;100;455;550
5.75;100;458;549
5.76;100;462;545
5.77;100;461;539
5.78;100;468;532
5.79;100;462;528
5.8;100;466;517
5.81;100;468;512
5.82;100;478;510
5.83;100;472;505
5.84;100;481;502
5.85;100;479;500
5.86;100;483;499
5.87;100;482;497
5.88;100;485;500
5.89;100;483;500
5.9;100;488;502
5.91;100;492;505
5.92;100;494;507
5.93;100;495;512
5.94;100;500;513
5.95;100;500;519
5.96;100;503;516
5.97;100;503;518
5.98;100;504;521
5.99;100;506;521
6;100;504;521
6.01;100;503;521
6.02;100;507;521
6.03;100;511;519
6.04;100;519;519
6.05;100;510;516
6.06;100;502;514
6.07;100;496;513
6.08;100;494;513
6.09;100;488;509
6.1;100;496;508
6.11;100;491;511
6.12;100;496;505
6.13;100;495;505
6.14;100;493;504
6.15;100;470;503
6.16;100;486;503
6.17;100;599;504
6.18;100;742;507
6.19;100;695;507
6.2;100;479;510
6.21;100;446;510
6.22;100;439;510
6.23;100;451;512
6.24;100;459;514
6.25;100;460;517
6.26;100;467;518
6.27;100;472;518
6.28;100;479;514
6.29;100;481;515
6.3;100;488;516
6.31;100;489;513
6.32;100;492;516
6.33;100;496;512
6.34;100;498;512
6.35;100;504;512
6.36;100;516;514
6.37;100;524;514
6.38;100;536;513
6.39;100;544;515
6.4;100;552;515
6.41;100;551;522
6.42;100;550;524
6.43;100;539;533
6.44;100;523;533
6.45;100;496;539
6.46;100;479;548
6.47;100;466;549
6.48;100;460;552
6.49;100;456;555
6.5;100;461;553
6.51;100;453;550
6.52;100;459;544
6.53;100;462;539
6.54;100;463;532
6.55;100;462;526
6.56;100;468;517
6.57;100;469;515
6.58;100;473;505
6.59;100;471;504
6.6;100;477;497
6.61;100;475;497
6.62;100;483;500
6.63;100;479;496
6.64;100;483;499
6.65;100;487;499
6.66;100;490;502
6.67;100;493;503
6.68;100;494;505
6.69;100;499;510
6.7;100;501;511
6.71;100;505;511
6.72;100;504;515
6.73;100;506;521
6.74;100;504;519
6.75;100;504;522
6.76;100;507;520
6.77;100;505;519
6.78;100;507;518
6.79;100;507;516
6.8;100;507;519
6.81;100;502;518
6.82;100;504;516
6.83;100;510;515
6.84;100;515;513
6.85;100;512;515
6.86;100;510;512
6.87;100;495;508
6.88;100;498;509
6.89;100;498;507
6.9;100;497;510
6.91;100;496;508
6.92;100;501;511
6.93;100;501;507
6.94;100;499;507
6.95;100;499;510
6.96;100;474;511
6.97;100;519;508
6.98;100;648;511
6.99;100;763;512
7;100;576;513
7.01;100;462;513
7.02;100;461;513
7.03;100;457;515
7.04;100;470;516
7.05;100;471;518
7.06;100;478;519
7.07;100;481;515
7.08;100;488;517
7.09;100;488;514
7.1;100;494;515
7.11;100;495;515
7.12;100;499;512
7.13;100;501;515
7.14;100;511;513
7.15;100;513;512
7.16;100;527;513
7.17;100;527;512
7.18;100;539;512
7.19;100;550;512
7.2;100;556;514
7.21;100;563;517
7.22;100;566;520
7.23;100;549;524
7.24;100;544;532
7.25;100;524;534
7.26;100;497;539
7.27;100;479;546
7.28;100;465;550
7.29;100;459;551
7.3;100;460;554
7.31;100;462;553
7.32;100;466;550
7.33;100;464;544
7.34;100;469;539
7.35;100;472;532
7.36;100;480;526
7.37;100;478;521
7.38;100;477;517
7.39;100;483;507
7.4;100;487;502
7.41;100;487;499
7.42;100;489;495
7.43;100;487;492
7.44;100;489;494
7.45;100;489;495
7.46;100;495;496
7.47;100;493;499
7.48;100;507;503
7.49;100;499;505
7.5;100;503;511
7.51;100;506;514
7.52;100;512;519
7.53;100;512;521
7.54;100;513;524
7.55;100;516;526
7.56;100;515;529
7.57;100;516;525
7.58;100;515;523
7.59;100;517;524
7.6;100;514;522
7.61;100;511;519
7.62;100;517;518
7.63;100;519;516
7.64;100;521;512
7.65;100;519;512
7.66;100;512;510
7.67;100;503;509
7.68;100;507;509
7.69;100;506;511
7.7;100;508;510
7.71;100;509;511
7.72;100;511;506
7.73;100;506;511
7.74;100;516;508
7.75;100;499;511
7.76;100;483;508
7.77;100;547;508
7.78;100;688;511
7.79;100;758;513
7.8;100;534;512
7.81;100;470;516
7.82;100;465;514
7.83;100;461;516
7.84;100;473;518
7.85;100;480;519
7.86;100;484;519
7.87;100;489;516
7.88;100;496;519
7.89;100;497;514
7.9;100;499;513
7.91;100;501;515
7.92;100;508;514
7.93;100;508;515
7.94;100;515;512
7.95;100;518;512
7.96;100;524;513
7.97;100;530;511
7.98;100;543;512
7.99;100;552;513
8;100;562;514
8.01;100;563;517
8.02;100;562;518
8.03;100;559;526
8.04;100;543;530
8.05;100;516;535
8.06;100;497;540
8.07;100;477;544
8.08;100;468;551
8.09;100;463;553
8.1;100;468;554
8.11;100;467;553
8.12;100;475;551
8.13;100;470;546
8.14;100;475;541
8.15;100;476;535
8.16;100;482;526
8.17;100;484;521
8.18;100;487;516
8.19;100;486;510
8.2;100;489;504
8.21;100;490;495
8.22;100;490;493
8.23;100;489;492
8.24;100;497;495
8.25;100;497;491
8.26;100;501;493
8.27;100;501;498
8.28;100;504;502
8.29;100;507;504
8.3;100;514;512
8.31;100;511;516
8.32;100;516;517
8.33;100;516;521
8.34;100;523;523
8.35;100;521;527
8.36;100;519;530
8.37;100;517;526
8.38;100;517;525
8.39;100;516;526
8.4;100;519;524
8.41;100;514;521
8.42;100;514;520
8.43;100;512;517
8.44;100;516;513
8.45;100;516;514
8.46;100;519;511
8.47;100;520;509
8.48;100;519;509
8.49;100;506;510
8.5;100;505;509
8.51;100;505;508
8.52;100;509;507
8.53;100;509;510
8.54;100;508;507
8.55;100;512;508
8.56;100;513;508
8.57;100;509;510
8.58;100;486;509
8.59;100;502;512
8.6;100;615;513
8.61;100;750;513
8.62;100;692;515
8.63;100;491;516
8.64;100;467;516
8.65;100;459;514
8.66;100;467;519
8.67;100;470;515
8.68;100;477;515
8.69;100;481;514
8.7;100;489;512
8.71;100;491;511
8.72;100;494;515
8.73;100;495;511
8.74;100;507;512
8.75;100;504;514
8.76;100;511;515
8.77;100;513;513
8.78;100;525;514
8.79;100;528;515
8.8;100;536;514
8.81;100;547;515
8.82;100;560;518
8.83;100;559;515
8.84;100;566;520
8.85;100;561;524
8.86;100;554;527
8.87;100;533;535
8.88;100;512;542
8.89;100;494;548
8.9;100;479;551
8.91;100;471;552
8.92;100;464;556
8.93;100;467;557
8.94;100;468;555
8.95;100;470;550
8.96;100;470;545
8.97;100;473;541
8.98;100;476;533
8.99;100;477;525
9;100;482;521
9.01;100;482;511
9.02;100;483;505
9.03;100;482;503
9.04;100;487;499
9.05;100;489;497
9.06;100;494;497
9.07;100;492;497
9.08;100;496;499
9.09;100;499;500
9.1;100;502;501
9.11;100;504;503
9.12;100;509;508
9.13;100;511;513
9.14;100;511;517
9.15;100;516;516
9.16;100;513;519
9.17;100;514;520
9.18;100;520;522
9.19;100;514;523
9.2;100;519;521
9.21;100;515;523
9.22;100;520;520
9.23;100;515;517
9.24;100;519;517
9.25;100;517;517
9.26;100;519;515
9.27;100;514;514
9.28;100;515;513
9.29;100;513;511
9.3;100;514;510
9.31;100;517;508
9.32;100;520;506
9.33;100;520;508
9.34;100;524;505
9.35;100;524;504
9.36;100;524;507
9.37;100;511;507
9.38;100;511;508
9.39;100;511;510
9.4;100;516;512
9.41;100;513;510
9.42;100;513;511
9.43;100;515;509
9.44;100;519;512
9.45;100;518;515
9.46;100;487;512
9.47;100;528;515
9.48;100;662;512
9.49;100;781;512
9.5;100;649;518
9.51;100;483;515
9.52;100;463;516
9.53;100;464;516
9.54;100;463;517
9.55;100;472;516
9.56;100;476;515
9.57;100;479;516
9.58;100;488;515
9.59;100;491;514
9.6;100;496;514
9.61;100;500;514
9.62;100;503;513
9.63;100;502;511
9.64;100;510;515
9.65;100;518;512
9.66;100;522;511
9.67;100;527;513
9.68;100;537;513
9.69;100;547;513
9.7;100;561;515
9.71;100;566;517
9.72;100;570;521
9.73;100;564;524
9.74;100;556;533
9.75;100;538;540
9.76;100;515;546
9.77;100;493;552
9.78;100;480;555
9.79;100;467;560
9.8;100;469;565
9.81;100;467;560
9.82;100;470;557
9.83;100;469;555
9.84;100;474;546
9.85;100;474;539
9.86;100;473;533
9.87;100;471;524
9.88;100;472;517
9.89;100;475;510
9.9;100;481;506
9.91;100;483;501
9.92;100;482;498
9.93;100;485;496
9.94;100;488;496
9.95;100;488;498
9.96;100;501;497
9.97;100;492;499
9.98;100;497;500
9.99;100;496;502
10;100;502;506
10.01;100;505;510
10.02;100;505;512
10.03;100;506;516
10.04;100;509;519
10.05;100;509;519
10.06;100;512;524
10.07;100;512;523
10.08;100;514;524
10.09;100;512;527
10.1;100;513;526
10.11;100;512;524
10.12;100;512;526
10.13;100;510;519
10.14;100;510;517
10.15;100;504;518
10.16;100;502;513
10.17;100;504;511
10.18;100;506;511
10.19;100;503;509
10.2;100;509;508
10.21;100;507;506
10.22;100;514;507
10.23;100;513;506
10.24;100;516;507
10.25;100;507;510
10.26;100;503;510
10.27;100;498;509
10.28;100;501;510
10.29;100;501;513
10.3;100;504;510
10.31;100;501;513
10.32;100;504;511
10.33;100;502;512
10.34;100;484;514
10.35;100;486;512
10.36;100;585;513
10.37;100;722;512
10.38;100;731;512
10.39;100;494;510
10.4;100;455;513
10.41;100;448;516
10.42;100;459;513
10.43;100;461;515
10.44;100;467;513
10.45;100;469;516
10.46;100;480;513
10.47;100;481;516
10.48;100;483;512
10.49;100;486;513
10.5;100;495;513
10.51;100;495;515
10.52;100;500;514
10.53;100;504;515
10.54;100;512;514
10.55;100;519;513
10.56;100;528;514
10.57;100;538;515
10.58;100;549;517
10.59;100;558;515
10.6;100;560;520
10.61;100;557;521
10.62;100;550;524
10.63;100;533;529
10.64;100;512;537
10.65;100;487;543
10.66;100;475;548
10.67;100;462;555
10.68;100;458;558
10.69;100;454;559
10.7;100;460;558
10.71;100;460;555
10.72;100;465;550
10.73;100;465;545
10.74;100;469;535
10.75;100;468;529
10.76;100;469;519
10.77;100;471;515
10.78;100;478;507
10.79;100;473;504
10.8;100;476;497
10.81;100;475;495
10.82;100;479;494
10.83;100;478;496
10.84;100;487;496
10.85;100;485;499
10.86;100;492;501
10.87;100;495;504
10.88;100;499;508
10.89;100;498;511
10.9;100;505;510
10.91;100;504;516
10.92;100;509;518
10.93;100;513;521
10.94;100;507;524
10.95;100;510;523
10.96;100;510;524
10.97;100;509;525
10.98;100;512;523
10.99;100;510;524
11;100;510;523
11.01;100;510;521
11.02;100;512;518
11.03;100;511;514
11.04;100;518;513
11.05;100;516;515
11.06;100;515;509
11.07;100;504;510
11.08;100;499;506
11.09;100;502;505
11.1;100;496;505
11.11;100;497;506
11.12;100;501;510
11.13;100;500;507
11.14;100;504;508
11.15;100;501;510
11.16;100;479;510
11.17;100;516;511
11.18;100;639;513
11.19;100;745;513
11.2;100;584;515
11.21;100;461;516
11.22;100;468;513
11.23;100;456;515
11.24;100;468;513
11.25;100;472;513
11.26;100;480;512
11.27;100;480;512
11.28;100;491;514
11.29;100;488;513
11.3;100;499;512
11.31;100;499;515
11.32;100;503;514
11.33;100;506;517
11.34;100;512;516
11.35;100;517;516
11.36;100;523;516
11.37;100;531;517
11.38;100;543;517
11.39;100;549;514
11.4;100;565;518
11.41;100;564;515
11.42;100;568;517
11.43;100;561;519
11.44;100;548;524
11.45;100;525;528
11.46;100;499;533
11.47;100;480;541
11.48;100;469;546
11.49;100;468;551
11.5;100;459;551
11.51;100;456;553
11.52;100;462;552
11.53;100;466;552
11.54;100;472;547
11.55;100;473;539
11.56;100;478;537
11.57;100;479;527
11.58;100;479;519
11.59;100;478;513
11.6;100;479;508
11.61;100;483;503
11.62;100;484;499
11.63;100;487;497
11.64;100;487;495
11.65;100;490;494
11.66;100;495;496
11.67;100;494;495
11.68;100;501;496
11.69;100;499;497
11.7;100;504;501
11.71;100;510;507
11.72;100;510;508
11.73;100;508;510
11.74;100;515;515
11.75;100;515;515
11.76;100;516;520
11.77;100;520;523
11.78;100;524;523
11.79;100;522;524
11.8;100;524;524
11.81;100;531;526
11.82;100;526;524
11.83;100;521;521
11.84;100;509;519
11.85;100;506;519
11.86;100;508;516
11.87;100;507;515
11.88;100;507;511
11.89;100;507;510
11.9;100;507;507
11.91;100;506;505
11.92;100;492;506
11.93;100;486;506
11.94;100;571;507
11.95;100;704;508
11.96;100;726;508
11.97;100;496;509
11.98;100;469;511
11.99;100;461;511
12;100;466;512
12.01;100;476;515
12.02;100;482;512
12.03;100;485;515
12.04;100;488;513
12.05;100;494;517
12.06;100;495;514
12.07;100;500;516
12.08;100;506;514
12.09;100;503;514
12.1;100;511;514
12.11;100;514;516
12.12;100;519;515
12.13;100;527;518
12.14;100;536;515
12.15;100;541;517
12.16;100;557;516
12.17;100;559;517
12.18;100;568;515
12.19;100;564;519
12.2;100;553;526
12.21;100;536;528
12.22;100;517;534
12.23;100;488;541
12.24;100;474;545
12.25;100;463;553
12.26;100;461;555
12.27;100;458;555
12.28;100;459;556
12.29;100;462;554
12.3;100;468;551
12.31;100;471;547
12.32;100;473;540
12.33;100;477;532
12.34;100;473;527
12.35;100;477;519
12.36;100;484;512
12.37;100;478;511
12.38;100;481;503
12.39;100;481;500
12.4;100;483;497
12.41;100;488;497
12.42;100;489;496
12.43;100;489;497
12.44;100;496;498
12.45;100;496;503
12.46;100;497;504
12.47;100;502;508
12.48;100;504;512
12.49;100;507;517
12.5;100;511;517
12.51;100;512;522
12.52;100;509;521
12.53;100;508;523
12.54;100;512;523
12.55;100;517;522
12.56;100;523;522
12.57;100;516;523
12.58;100;510;520
12.59;100;508;520
12.6;100;507;519
12.61;100;504;520
12.62;100;507;517
12.63;100;505;515
12.64;100;504;514
12.65;100;507;514
12.66;100;504;513
12.67;100;472;513
12.68;100;517;512
12.69;100;643;508
12.7;100;763;507
12.71;100;634;507
12.72;100;468;510
12.73;100;453;508
12.74;100;454;508
12.75;100;457;509
12.76;100;465;509
12.77;100;473;511
12.78;100;477;511
12.79;100;481;512
12.8;100;492;513
12.81;100;492;514
12.82;100;497;514
12.83;100;495;516
12.84;100;500;516
12.85;100;505;513
12.86;100;516;514
12.87;100;515;516
12.88;100;527;518
12.89;100;536;518
12.9;100;544;516
12.91;100;553;516
12.92;100;560;518
12.93;100;558;520
12.94;100;560;524
12.95;100;544;530
12.96;100;531;535
12.97;100;501;542
12.98;100;483;545
12.99;100;472;551
13;100;466;552
13.01;100;462;554
13.02;100;465;558
13.03;100;465;554
13.04;100;473;550
13.05;100;470;546
13.06;100;474;539
13.07;100;477;531
13.08;100;477;524
13.09;100;479;518
13.1;100;480;512
13.11;100;483;507
13.12;100;485;503
13.13;100;486;502
13.14;100;489;497
13.15;100;490;497
13.16;100;493;496
13.17;100;489;496
13.18;100;499;497
13.19;100;498;499
13.2;100;504;502
13.21;100;500;504
13.22;100;507;507
13.23;100;507;509
13.24;100;516;512
13.25;100;510;516
13.26;100;518;518
13.27;100;517;520
13.28;100;519;522
13.29;100;522;524
13.3;100;526;524
13.31;100;528;523
13.32;100;522;522
13.33;100;512;522
13.34;100;515;520
13.35;100;510;518
13.36;100;511;516
13.37;100;509;514
13.38;100;513;512
13.39;100;507;510
13.4;100;507;509
13.41;100;486;508
13.42;100;500;507
13.43;100;607;507
13.44;100;747;508
13.45;100;721;509
13.46;100;499;507
13.47;100;464;509
13.48;100;457;509
13.49;100;464;510
13.5;100;472;512
13.51;100;477;513
13.52;100;484;512
13.53;100;486;514
13.54;100;492;514
13.55;100;498;515
13.56;100;501;516
13.57;100;504;516
13.58;100;509;515
13.59;100;512;515
13.6;100;515;515
13.61;100;523;518
13.62;100;530;519
13.63;100;540;517
13.64;100;549;520
13.65;100;557;519
13.66;100;564;519
13.67;100;564;520
13.68;100;564;523
13.69;100;552;528
13.7;100;535;531
13.71;100;511;536
13.72;100;490;542
13.73;100;475;547
13.74;100;467;550
13.75;100;464;553
13.76;100;468;553
13.77;100;464;553
13.78;100;474;550
13.79;100;474;543
13.8;100;479;537
13.81;100;479;530
13.82;100;482;522
13.83;100;480;515
13.84;100;480;509
13.85;100;483;503
13.86;100;489;500
13.87;100;487;499
13.88;100;490;497
13.89;100;494;498
13.9;100;496;496
13.91;100;496;497
13.92;100;500;499
13.93;100;505;503
13.94;100;510;507
13.95;100;508;512
13.96;100;513;515
13.97;100;518;518
13.98;100;518;521
13.99;100;512;522
14;100;517;525
14.01;100;516;524
14.02;100;519;525
14.03;100;515;524
14.04;100;527;524
14.05;100;523;523
14.06;100;531;521
14.07;100;513;519
14.08;100;505;516
14.09;100;507;515
14.1;100;510;512
14.11;100;504;510
14.12;100;506;507
14.13;100;505;505
14.14;100;511;508
14.15;100;505;507
14.16;100;489;508
14.17;100;484;505
14.18;100;584;507
14.19;100;722;506
14.2;100;754;507
14.21;100;505;506
14.22;100;465;507
14.23;100;454;505
14.24;100;462;508
14.25;100;469;507
14.26;100;478;510
14.27;100;483;510
14.28;100;486;510
14.29;100;488;510
14.3;100;497;513
14.31;100;498;514
14.32;100;511;515
14.33;100;508;514
14.34;100;518;515
14.35;100;518;514
14.36;100;524;514
14.37;100;531;513
14.38;100;542;512
14.39;100;555;513
14.4;100;561;514
14.41;100;568;515
14.42;100;573;518
14.43;100;568;522
14.44;100;560;527
14.45;100;544;534
14.46;100;527;540
14.47;100;498;546
14.48;100;487;551
14.49;100;471;555
14.5;100;472;557
14.51;100;471;555
14.52;100;471;554
14.53;100;472;552
14.54;100;478;543
14.55;100;477;538
14.56;100;483;531
14.57;100;484;525
14.58;100;487;519
14.59;100;487;513
14.6;100;489;506
14.61;100;494;501
14.62;100;496;496
14.63;100;491;495
14.64;100;496;496
14.65;100;499;495
14.66;100;498;496
14.67;100;502;498
14.68;100;507;501
14.69;100;509;503
14.7;100;515;506
14.71;100;515;509
14.72;100;518;515
14.73;100;515;517
14.74;100;522;519
14.75;100;520;520
14.76;100;521;521
14.77;100;522;523
14.78;100;529;522
14.79;100;529;520
14.8;100;530;521
14.81;100;520;519
14.82;100;512;519
14.83;100;510;515
14.84;100;513;515
14.85;100;511;511
14.86;100;510;512
14.87;100;507;510
14.88;100;510;511
14.89;100;509;509
14.9;100;503;508
14.91;100;476;507
14.92;100;548;507
14.93;100;675;505
14.94;100;755;508
14.95;100;520;508
14.96;100;462;509
14.97;100;459;512
14.98;100;460;512
14.99;100;470;512
15;100;480;511
15.01;100;479;512
15.02;100;482;511
15.03;100;489;512
15.04;100;496;513
15.05;100;496;515
15.06;100;495;515
15.07;100;503;514
15.08;100;503;516
15.09;100;510;515
15.1;100;517;513
15.11;100;521;512
15.12;100;528;510
15.13;100;534;510
15.14;100;545;511
15.15;100;552;512
15.16;100;558;517
15.17;100;551;519
15.18;100;551;522
15.19;100;531;528
15.2;100;512;536
15.21;100;485;543
15.22;100;469;547
15.23;100;457;547
15.24;100;449;548
15.25;100;448;546
15.26;100;454;547
15.27;100;456;543
15.28;100;458;538
15.29;100;459;533
15.3;100;465;526
15.31;100;465;520
15.32;100;471;516
15.33;100;471;509
15.34;100;477;504
15.35;100;474;500
15.36;100;477;497
15.37;100;478;496
15.38;100;477;494
15.39;100;478;496
15.4;100;482;497
15.41;100;485;499
15.42;100;489;501
15.43;100;492;504
15.44;100;495;510
15.45;100;499;511
15.46;100;502;517
15.47;100;501;520
15.48;100;506;523
15.49;100;505;527
15.5;100;505;526
15.51;100;507;527
15.52;100;508;526
15.53;100;511;527
15.54;100;518;525
15.55;100;505;523
15.56;100;497;520
15.57;100;496;519
15.58;100;492;513
15.59;100;494;511
15.6;100;495;511
15.61;100;497;508
15.62;100;496;505
15.63;100;497;503
15.64;100;494;502
15.65;100;471;503
15.66;100;502;500
15.67;100;623;502
15.68;100;744;501
15.69;100;624;504
15.7;100;467;504
15.71;100;459;506
15.72;100;455;510
15.73;100;462;510
15.74;100;471;513
15.75;100;472;512
15.76;100;484;512
15.77;100;478;511
15.78;100;489;513
15.79;100;491;514
15.8;100;495;515
15.81;100;501;518
15.82;100;500;516
15.83;100;504;515
15.84;100;513;513
15.85;100;512;515
15.86;100;523;513
15.87;100;536;511
15.88;100;543;513
15.89;100;553;513
15.9;100;562;517
15.91;100;561;521
15.92;100;557;528
15.93;100;541;531
15.94;100;523;540
15.95;100;497;542
15.96;100;479;550
15.97;100;465;551
15.98;100;462;555
15.99;100;460;554
16;100;457;552
16.01;100;461;551
16.02;100;465;545
16.03;100;464;539
16.04;100;470;533
16.05;100;472;526
16.06;100;474;519
16.07;100;476;511
16.08;100;479;506
16.09;100;480;504
16.1;100;481;497
16.11;100;483;495
16.12;100;487;496
16.13;100;487;496
16.14;100;490;495
16.15;100;494;497
16.16;100;497;499
16.17;100;498;502
16.18;100;505;507
16.19;100;501;510
16.2;100;503;513
16.21;100;507;517
16.22;100;510;516
16.23;100;514;518
16.24;100;511;518
16.25;100;507;519
16.26;100;510;517
16.27;100;510;516
16.28;100;513;516
16.29;100;511;515
16.3;100;515;515
16.31;100;520;514
16.32;100;520;511
16.33;100;512;512
16.34;100;504;511
16.35;100;504;511
16.36;100;504;507
16.37;100;508;508
16.38;100;506;507
16.39;100;505;506
16.4;100;507;506
16.41;100;508;505
16.42;100;506;505
16.43;100;481;506
16.44;100;510;510
16.45;100;633;513
16.46;100;752;513
16.47;100;655;513
16.48;100;479;514
16.49;100;464;515
16.5;100;459;514
16.51;100;465;515
16.52;100;472;518
16.53;100;474;515
16.54;100;481;516
16.55;100;484;515
16.56;100;490;514
16.57;100;496;515
16.58;100;499;512
16.59;100;499;512
16.6;100;503;514
16.61;100;508;515
16.62;100;516;512
16.63;100;520;512
16.64;100;528;512
16.65;100;536;514
16.66;100;543;510
16.67;100;552;512
16.68;100;565;516
16.69;100;564;519
16.7;100;561;526
16.71;100;551;528
16.72;100;527;538
16.73;100;504;541
16.74;100;486;548
16.75;100;472;551
16.76;100;469;557
16.77;100;464;558
16.78;100;463;552
16.79;100;465;549
16.8;100;464;543
16.81;100;464;540
16.82;100;472;533
16.83;100;472;527
16.84;100;477;518
16.85;100;478;515
16.86;100;480;508
16.87;100;481;502
16.88;100;489;501
16.89;100;484;496
16.9;100;492;498
16.91;100;492;497
16.92;100;493;498
16.93;100;494;496
16.94;100;498;498
16.95;100;502;502
16.96;100;505;505
16.97;100;502;511
16.98;100;507;512
16.99;100;505;514
17;100;517;516
17.01;100;510;519
17.02;100;513;519
17.03;100;512;519
17.04;100;512;518
17.05;100;513;519
17.06;100;512;519
17.07;100;515;516
17.08;100;513;516
17.09;100;511;518
17.1;100;514;515
17.11;100;509;513
17.12;100;509;514
17.13;100;512;510
17.14;100;512;509
17.15;100;510;509
17.16;100;511;506
17.17;100;510;508
17.18;100;513;508
17.19;100;512;508
17.2;100;512;508
17.21;100;520;510
17.22;100;518;507
17.23;100;520;507
17.24;100;526;507
17.25;100;522;508
17.26;100;519;512
17.27;100;507;511
17.28;100;504;511
17.29;100;505;510
17.3;100;508;512
17.31;100;506;510
17.32;100;511;512
17.33;100;506;511
17.34;100;511;513
17.35;100;509;515
17.36;100;490;514
17.37;100;503;516
17.38;100;619;512
17.39;100;750;511
17.4;100;691;511
17.41;100;487;511
17.42;100;456;514
17.43;100;451;510
17.44;100;459;510
17.45;100;463;513
17.46;100;473;511
17.47;100;476;512
17.48;100;481;514
17.49;100;484;511
17.5;100;491;510
17.51;100;491;510
17.52;100;497;512
17.53;100;499;510
17.54;100;505;509
17.55;100;508;509
17.56;100;518;512
17.57;100;522;510
17.58;100;531;509
17.59;100;540;509
17.6;100;549;512
17.61;100;556;516
17.62;100;564;519
17.63;100;568;525
17.64;100;555;533
17.65;100;545;542
17.66;100;525;547
17.67;100;502;552
17.68;100;481;554
17.69;100;466;556
17.7;100;467;556
17.71;100;460;555
17.72;100;463;551
17.73;100;467;547
17.74;100;467;540
17.75;100;465;532
17.76;100;470;525
17.77;100;473;520
17.78;100;478;513
17.79;100;476;508
17.8;100;478;505
17.81;100;479;503
17.82;100;482;498
17.83;100;487;498
17.84;100;491;497
17.85;100;493;498
17.86;100;498;499
17.87;100;499;498
17.88;100;502;501
17.89;100;504;503
17.9;100;501;509
17.91;100;504;510
17.92;100;509;514
17.93;100;510;514
17.94;100;514;515
17.95;100;512;517
17.96;100;513;520
17.97;100;512;522
17.98;100;516;522
17.99;100;512;519
18;100;511;519
18.01;100;512;520
18.02;100;516;516
18.03;100;508;513
18.04;100;510;513
18.05;100;510;510
18.06;100;511;510
18.07;100;512;508
18.08;100;514;508
18.09;100;509;510
18.1;100;515;509
18.11;100;517;510
18.12;100;511;508
18.13;100;519;510
18.14;100;525;507
18.15;100;521;506
18.16;100;513;509
18.17;100;504;509
18.18;100;504;508
18.19;100;505;506
18.2;100;507;508
18.21;100;508;511
18.22;100;513;508
18.23;100;508;512
18.24;100;508;509
18.25;100;495;513
18.26;100;487;512
18.27;100;571;513
18.28;100;714;514
18.29;100;769;515
18.3;100;531;513
18.31;100;464;512
18.32;100;454;509
18.33;100;455;511
18.34;100;465;512
18.35;100;467;510
18.36;100;475;511
18.37;100;481;514
18.38;100;487;510
18.39;100;492;511
18.4;100;495;510
18.41;100;496;513
18.42;100;501;513
18.43;100;503;514
18.44;100;512;512
18.45;100;513;514
18.46;100;519;509
18.47;100;528;508
18.48;100;541;512
18.49;100;548;510
18.5;100;556;511
18.51;100;560;512
18.52;100;563;518
18.53;100;558;526
18.54;100;547;528
18.55;100;526;535
18.56;100;497;542
18.57;100;483;547
18.58;100;474;553
18.59;100;463;555
18.6;100;463;555
18.61;100;465;555
18.62;100;467;547
18.63;100;467;542
18.64;100;465;536
18.65;100;470;531
18.66;100;479;525
18.67;100;473;515
18.68;100;477;513
18.69;100;480;504
18.7;100;482;504
18.71;100;483;498
18.72;100;487;497
18.73;100;490;497
18.74;100;494;497
18.75;100;496;499
18.76;100;495;499
18.77;100;497;503
18.78;100;501;502
18.79;100;507;504
18.8;100;506;508
18.81;100;510;513
18.82;100;508;515
18.83;100;510;514
18.84;100;513;516
18.85;100;512;520
18.86;100;512;518
18.87;100;513;519
18.88;100;512;517
18.89;100;509;517
18.9;100;514;517
18.91;100;509;517
18.92;100;513;516
18.93;100;512;516
18.94;100;515;514
18.95;100;507;513
18.96;100;510;510
18.97;100;510;507
18.98;100;512;506
18.99;100;509;505
19;100;512;508
19.01;100;513;507
19.02;100;518;505
19.03;100;510;506
19.04;100;518;506
19.05;100;523;510
19.06;100;524;509
19.07;100;518;510
19.08;100;508;511
19.09;100;502;513
19.1;100;507;512
19.11;100;504;509
19.12;100;504;510
19.13;100;509;513
19.14;100;506;509
19.15;100;505;509
19.16;100;485;510
19.17;100;497;511
19.18;100;604;510
19.19;100;735;510
19.2;100;705;510
19.21;100;489;510
19.22;100;457;509
19.23;100;451;510
19.24;100;464;512
19.25;100;463;513
19.26;100;475;513
19.27;100;473;514
19.28;100;483;514
19.29;100;486;514
19.3;100;489;510
19.31;100;495;510
19.32;100;498;513
19.33;100;502;510
19.34;100;505;510
19.35;100;512;509
19.36;100;521;509
19.37;100;523;512
19.38;100;531;508
19.39;100;545;509
19.4;100;549;511
19.41;100;556;514
19.42;100;563;516
19.43;100;561;516
19.44;100;559;522
19.45;100;544;531
19.46;100;519;534
19.47;100;496;543
19.48;100;482;549
19.49;100;467;550
19.5;100;461;551
19.51;100;461;552
19.52;100;462;551
19.53;100;464;548
19.54;100;468;544
19.55;100;471;534
19.56;100;469;528
19.57;100;471;520
19.58;100;474;513
19.59;100;477;507
19.6;100;477;501
19.61;100;477;495
19.62;100;482;493
19.63;100;483;492
19.64;100;489;497
19.65;100;493;497
19.66;100;496;495
19.67;100;494;497
19.68;100;499;502
19.69;100;502;504
19.7;100;503;510
19.71;100;506;509
19.72;100;510;514
19.73;100;508;513
19.74;100;514;519
19.75;100;512;523
19.76;100;512;522
19.77;100;512;525
19.78;100;512;524
19.79;100;512;520
19.8;100;513;524
19.81;100;511;522
19.82;100;512;517
19.83;100;513;516
19.84;100;511;512
19.85;100;508;512
19.86;100;507;508
19.87;100;505;507
19.88;100;514;508
19.89;100;512;509
19.9;100;512;504
19.91;100;519;504
19.92;100;524;508
19.93;100;523;505
19.94;100;515;504
19.95;100;506;505
19.96;100;503;506
19.97;100;504;510
19.98;100;510;506
19.99;100;504;508
20;100;509;508
20.01;100;509;511
20.02;100;499;511
20.03;100;481;512
20.04;100;560;516
20.05;100;684;518
20.06;100;741;518
20.07;100;503;515
20.08;100;465;516
20.09;100;468;519
20.1;100;466;513
20.11;100;475;513
20.12;100;483;515
20.13;100;485;512
20.14;100;488;511
20.15;100;490;511
20.16;100;498;510
20.17;100;502;512
20.18;100;504;515
20.19;100;510;511
20.2;100;511;513
20.21;100;516;511
20.22;100;518;510
20.23;100;526;511
20.24;100;535;510
20.25;100;544;510
20.26;100;550;507
20.27;100;564;509
20.28;100;570;514
20.29;100;572;515
20.3;100;562;517
20.31;100;548;522
20.32;100;524;527
20.33;100;499;533
20.34;100;483;539
20.35;100;468;544
20.36;100;460;550
20.37;100;457;550
20.38;100;460;552
20.39;100;461;546
20.4;100;468;547
20.41;100;473;538
20.42;100;475;534
20.43;100;476;528
20.44;100;480;525
20.45;100;479;517
20.46;100;485;510
20.47;100;479;505
20.48;100;483;502
20.49;100;485;500
20.5;100;485;499
20.51;100;486;495
20.52;100;492;496
20.53;100;490;494
20.54;100;494;497
20.55;100;494;501
20.56;100;503;502
20.57;100;500;508
20.58;100;504;507
20.59;100;507;510
20.6;100;508;516
20.61;100;513;515
20.62;100;513;519
20.63;100;515;521
20.64;100;515;524
20.65;100;516;523
20.66;100;513;521
20.67;100;515;523
20.68;100;517;520
20.69;100;520;520
20.7;100;511;514
20.71;100;521;511
20.72;100;519;509
20.73;100;520;507
20.74;100;510;504
20.75;100;501;504
20.76;100;499;504
20.77;100;503;507
20.78;100;500;503
20.79;100;503;504
20.8;100;509;504
20.81;100;509;507
20.82;100;492;508
20.83;100;488;507
20.84;100;581;510
20.85;100;700;512
20.86;100;697;511
20.87;100;476;511
20.88;100;473;509
20.89;100;462;509
20.9;100;471;510
20.91;100;477;511
20.92;100;480;514
20.93;100;489;516
20.94;100;493;517
20.95;100;495;516
20.96;100;502;518
20.97;100;502;517
20.98;100;507;517
20.99;100;507;517
21;100;513;515
21.01;100;517;515
21.02;100;524;511
21.03;100;526;511
21.04;100;534;512
21.05;100;542;512
21.06;100;556;512
21.07;100;560;509
21.08;100;565;511
21.09;100;561;517
21.1;100;553;516
21.11;100;537;521
21.12;100;514;529
21.13;100;493;532
21.14;100;472;539
21.15;100;464;540
21.16;100;461;545
21.17;100;456;544
21.18;100;459;546
21.19;100;467;547
21.2;100;465;542
21.21;100;476;541
21.22;100;476;532
21.23;100;478;529
21.24;100;483;522
21.25;100;484;516
21.26;100;484;512
21.27;100;486;505
21.28;100;489;502
21.29;100;487;501
21.3;100;486;499
21.31;100;497;497
21.32;100;492;499
21.33;100;494;500
21.34;100;499;501
21.35;100;501;503
21.36;100;505;505
21.37;100;501;505
21.38;100;508;510
21.39;100;510;511
21.4;100;515;515
21.41;100;514;516
21.42;100;513;520
21.43;100;511;519
21.44;100;515;522
21.45;100;514;522
21.46;100;518;522
21.47;100;517;520
21.48;100;522;522
21.49;100;523;522
21.5;100;515;518
21.51;100;505;515
21.52;100;501;511
21.53;100;503;509
21.54;100;501;508
21.55;100;502;507
21.56;100;505;509
21.57;100;507;505
21.58;100;505;505
21.59;100;489;505
21.6;100;493;506
21.61;100;592;509
21.62;100;722;509
21.63;100;699;509
21.64;100;488;511
21.65;100;466;513
21.66;100;458;513
21.67;100;464;513
21.68;100;475;511
21.69;100;477;514
21.7;100;479;510
21.71;100;486;510
21.72;100;490;514
21.73;100;495;512
21.74;100;498;511
21.75;100;498;511
21.76;100;506;513
21.77;100;511;510
21.78;100;511;510
21.79;100;519;508
21.8;100;528;510
21.81;100;535;510
21.82;100;543;510
21.83;100;554;507
21.84;100;560;511
21.85;100;563;511
21.86;100;562;513
21.87;100;553;518
21.88;100;539;527
21.89;100;513;534
21.9;100;492;536
21.91;100;475;541
21.92;100;463;544
21.93;100;463;549
21.94;100;462;551
21.95;100;464;547
21.96;100;465;547
21.97;100;470;540
21.98;100;475;538
21.99;100;477;530
22;100;479;524
22.01;100;481;522
22.02;100;480;513
22.03;100;485;508
22.04;100;486;509
22.05;100;491;504
22.06;100;490;502
22.07;100;492;501
22.08;100;494;501
22.09;100;494;503
22.1;100;500;503
22.11;100;502;504
22.12;100;505;508
22.13;100;500;510
22.14;100;508;511
22.15;100;504;512
22.16;100;510;511
22.17;100;511;513
22.18;100;510;515
22.19;100;512;516
22.2;100;508;519
22.21;100;512;523
22.22;100;518;519
22.23;100;525;521
22.24;100;519;520
22.25;100;517;521
22.26;100;508;520
22.27;100;512;519
22.28;100;510;516
22.29;100;514;517
22.3;100;508;511
22.31;100;506;509
22.32;100;509;509
22.33;100;509;506
22.34;100;501;508
22.35;100;484;504
22.36;100;551;506
22.37;100;691;503
22.38;100;763;504
22.39;100;545;505
22.4;100;469;507
22.41;100;462;508
22.42;100;463;509
22.43;100;472;510
22.44;100;477;512
22.45;100;484;513
22.46;100;491;511
22.47;100;496;511
22.48;100;495;515
22.49;100;500;513
22.5;100;502;512
22.51;100;509;511
22.52;100;511;512
22.53;100;515;513
22.54;100;519;511
22.55;100;528;512
22.56;100;534;510
22.57;100;544;512
22.58;100;553;512
22.59;100;561;513
22.6;100;565;516
22.61;100;568;520
22.62;100;561;523
22.63;100;548;525
22.64;100;524;533
22.65;100;502;535
22.66;100;481;542
22.67;100;472;543
22.68;100;467;545
22.69;100;468;545
22.7;100;470;545
22.71;100;472;542
22.72;100;476;538
22.73;100;479;536
22.74;100;483;529
22.75;100;488;524
22.76;100;488;521
22.77;100;489;515
22.78;100;487;510
22.79;100;492;506
22.8;100;495;501
22.81;100;497;499
22.82;100;499;499
22.83;100;504;501
22.84;100;504;502
22.85;100;504;500
22.86;100;506;505
22.87;100;512;504
22.88;100;508;509
22.89;100;513;510
22.9;100;518;513
22.91;100;519;513
22.92;100;512;518
22.93;100;516;517
22.94;100;515;521
22.95;100;518;522
22.96;100;519;521
22.97;100;518;520
22.98;100;516;521
22.99;100;517;517
23;100;515;518
23.01;100;514;515
23.02;100;515;513
23.03;100;518;511
23.04;100;520;509
23.05;100;524;509
23.06;100;512;508
23.07;100;503;507
23.08;100;507;509
23.09;100;510;508
23.1;100;507;510
23.11;100;508;507
23.12;100;510;507
23.13;100;511;508
23.14;100;510;510
23.15;100;500;509
23.16;100;486;510
23.17;100;566;510
23.18;100;711;511
23.19;100;775;509
23.2;100;535;509
23.21;100;464;512
23.22;100;454;512
23.23;100;459;512
23.24;100;465;515
23.25;100;472;512
23.26;100;476;515
23.27;100;480;512
23.28;100;485;514
23.29;100;493;511
23.3;100;492;513
23.31;100;496;512
23.32;100;502;512
23.33;100;504;514
23.34;100;505;511
23.35;100;512;511
23.36;100;516;511
23.37;100;527;513
23.38;100;531;513
23.39;100;547;513
23.4;100;554;515
23.41;100;559;518
23.42;100;559;519
23.43;100;555;522
23.44;100;539;527
23.45;100;519;532
23.46;100;494;537
23.47;100;478;542
23.48;100;463;546
23.49;100;460;548
23.5;100;454;546
23.51;100;461;546
23.52;100;463;543
23.53;100;464;539
23.54;100;468;534
23.55;100;473;529
23.56;100;472;523
23.57;100;474;519
23.58;100;474;514
23.59;100;480;510
23.6;100;483;507
23.61;100;487;506
23.62;100;487;502
23.63;100;488;501
23.64;100;489;502
23.65;100;492;501
23.66;100;492;502
23.67;100;497;500
23.68;100;497;502
23.69;100;497;504
23.7;100;499;505
23.71;100;502;506
23.72;100;503;509
23.73;100;507;511
23.74;100;507;513
23.75;100;508;514
23.76;100;507;515
23.77;100;509;515
23.78;100;505;518
23.79;100;512;518
23.8;100;505;517
23.81;100;511;517
23.82;100;506;518
23.83;100;507;515
23.84;100;507;515
23.85;100;511;514
23.86;100;512;513
23.87;100;517;511
23.88;100;513;513
23.89;100;505;511
23.9;100;500;510
23.91;100;505;509
23.92;100;504;509
23.93;100;506;510
23.94;100;505;508
23.95;100;512;507
23.96;100;505;509
23.97;100;502;508
23.98;100;472;508
23.99;100;529;510
24;100;667;509
24.01;100;780;510
24.02;100;582;509
24.03;100;467;511
24.04;100;449;510
24.05;100;457;511
24.06;100;460;511
24.07;100;467;514
24.08;100;471;511
24.09;100;475;512
24.1;100;478;511
24.11;100;485;512
24.12;100;488;514
24.13;100;497;513
24.14;100;495;513
24.15;100;502;514
24.16;100;505;512
24.17;100;511;513
24.18;100;515;511
24.19;100;526;512
24.2;100;533;511
24.21;100;543;513
24.22;100;553;513
24.23;100;559;514
24.24;100;558;519
24.25;100;558;524
24.26;100;542;527
24.27;100;524;534
24.28;100;498;539
24.29;100;483;544
24.3;100;465;548
24.31;100;461;549
24.32;100;459;549
24.33;100;460;551
24.34;100;460;547
24.35;100;464;542
24.36;100;468;537
24.37;100;470;530
24.38;100;471;527
24.39;100;479;520
24.4;100;476;516
24.41;100;483;512
24.42;100;480;507
24.43;100;485;504
24.44;100;486;501
24.45;100;489;500
24.46;100;495;499
24.47;100;491;499
24.48;100;494;500
24.49;100;496;503
24.5;100;499;503
24.51;100;501;504
24.52;100;503;507
24.53;100;506;510
24.54;100;504;511
24.55;100;510;512
24.56;100;509;513
24.57;100;512;515
24.58;100;510;515
24.59;100;511;516
24.6;100;515;517
24.61;100;514;518
24.62;100;515;519
24.63;100;514;519
24.64;100;513;516
24.65;100;515;518
24.66;100;512;517
24.67;100;514;513
24.68;100;519;513
24.69;100;521;511
24.7;100;514;509
24.71;100;508;507
24.72;100;501;506
24.73;100;505;507
24.74;100;507;509
24.75;100;510;508
24.76;100;506;509
24.77;100;511;510
24.78;100;510;511
24.79;100;509;514
24.8;100;484;514
24.81;100;514;517
24.82;100;635;519
24.83;100;761;515
24.84;100;654;517
24.85;100;475;516
24.86;100;461;515
24.87;100;461;515
24.88;100;465;513
24.89;100;473;515
24.9;100;474;513
24.91;100;485;511
24.92;100;489;512
24.93;100;488;512
24.94;100;493;512
24.95;100;500;511
24.96;100;502;511
24.97;100;509;514
24.98;100;512;512
24.99;100;516;512
25;100;522;515
25.01;100;531;511
25.02;100;535;510
25.03;100;551;511
25.04;100;556;510
25.05;100;566;512
25.06;100;562;514
25.07;100;564;520
25.08;100;550;525
25.09;100;536;528
25.1;100;509;533
25.11;100;489;539
25.12;100;466;542
25.13;100;459;546
25.14;100;456;549
25.15;100;458;545
25.16;100;462;545
25.17;100;467;540
25.18;100;467;537
25.19;100;472;532
25.2;100;479;525
25.21;100;481;523
25.22;100;478;516
25.23;100;484;510
25.24;100;487;509
25.25;100;487;504
25.26;100;491;503
25.27;100;487;503
25.28;100;489;500
25.29;100;496;501
25.3;100;495;499
25.31;100;497;502
25.32;100;501;503
25.33;100;505;504
25.34;100;504;507
25.35;100;508;508
25.36;100;504;515
25.37;100;507;514
25.38;100;513;519
25.39;100;512;521
25.4;100;512;521
25.41;100;513;523
25.42;100;512;523
25.43;100;514;521
25.44;100;514;519
25.45;100;515;523
25.46;100;522;521
25.47;100;519;519
25.48;100;520;515
25.49;100;515;516
25.5;100;500;511
25.51;100;507;510
25.52;100;501;510
25.53;100;506;508
25.54;100;510;508
25.55;100;506;505
25.56;100;508;506
25.57;100;509;504
25.58;100;502;508
25.59;100;479;508
25.6;100;542;511
25.61;100;667;513
25.62;100;747;514
25.63;100;531;510
25.64;100;464;513
25.65;100;470;512
25.66;100;466;513
25.67;100;476;513
25.68;100;481;514
25.69;100;487;511
25.7;100;491;512
25.71;100;494;515
25.72;100;497;515
25.73;100;501;513
25.74;100;504;515
25.75;100;512;515
25.76;100;508;513
25.77;100;518;514
25.78;100;520;510
25.79;100;527;512
25.8;100;536;508
25.81;100;543;510
25.82;100;555;513
25.83;100;566;510
25.84;100;566;515
25.85;100;572;515
25.86;100;556;520
25.87;100;547;520
25.88;100;518;526
25.89;100;494;529
25.9;100;473;536
25.91;100;468;540
25.92;100;455;543
25.93;100;455;547
25.94;100;455;547
25.95;100;460;541
25.96;100;463;542
25.97;100;470;535
25.98;100;472;528
25.99;100;480;523
26;100;475;519
26.01;100;481;516
26.02;100;483;511
26.03;100;483;508
26.04;100;481;506
26.05;100;489;505
26.06;100;487;504
26.07;100;488;502
26.08;100;490;502
26.09;100;494;504
26.1;100;492;508
26.11;100;494;504
26.12;100;501;511
26.13;100;499;510
26.14;100;502;514
26.15;100;504;516
26.16;100;505;515
26.17;100;506;520
26.18;100;508;517
26.19;100;504;521
26.2;100;512;524
26.21;100;522;523
26.22;100;517;521
26.23;100;517;519
26.24;100;510;522
26.25;100;500;515
26.26;100;505;518
26.27;100;502;512
26.28;100;498;515
26.29;100;502;513
26.3;100;499;508
26.31;100;502;509
26.32;100;496;505
26.33;100;490;509
26.34;100;481;506
26.35;100;560;510
26.36;100;684;506
26.37;100;727;510
26.38;100;496;509
26.39;100;461;512
26.4;100;453;512
26.41;100;460;512
26.42;100;467;511
26.43;100;476;513
26.44;100;476;515
26.45;100;487;511
26.46;100;482;511
26.47;100;492;515
26.48;100;493;515
26.49;100;504;516
26.5;100;500;515
26.51;100;507;515
26.52;100;506;515
26.53;100;519;513
26.54;100;523;515
26.55;100;529;516
26.56;100;543;515
26.57;100;546;517
26.58;100;552;519
26.59;100;560;515
26.6;100;555;520
26.61;100;552;521
26.62;100;529;524
26.63;100;511;527
26.64;100;487;534
26.65;100;472;537
26.66;100;462;541
26.67;100;462;543
26.68;100;461;544
26.69;100;461;541
26.7;100;464;542
26.71;100;470;537
26.72;100;469;534
26.73;100;477;533
26.74;100;483;528
26.75;100;485;523
26.76;100;487;521
26.77;100;491;512
26.78;100;488;508
26.79;100;489;508
26.8;100;487;506
26.81;100;496;501
26.82;100;497;504
26.83;100;497;504
26.84;100;500;504
26.85;100;502;505
26.86;100;497;506
26.87;100;510;509
26.88;100;505;512
26.89;100;511;516
26.9;100;511;519
26.91;100;513;515
26.92;100;516;521
26.93;100;517;519
26.94;100;514;521
26.95;100;526;524
26.96;100;523;522
26.97;100;528;520
26.98;100;513;519
26.99;100;511;518
27;100;512;518
27.01;100;511;517
27.02;100;508;515
27.03;100;511;511
27.04;100;513;512
27.05;100;511;512
27.06;100;516;511
27.07;100;494;511
27.08;100;493;512
27.09;100;583;508
27.1;100;718;507
27.11;100;718;505
27.12;100;501;507
27.13;100;469;511
27.14;100;460;510
27.15;100;466;511
27.16;100;472;511
27.17;100;482;509
27.18;100;483;512
27.19;100;492;514
27.2;100;490;514
27.21;100;497;516
27.22;100;502;515
27.23;100;504;516
27.24;100;507;513
27.25;100;513;512
27.26;100;512;511
27.27;100;519;510
27.28;100;523;513
27.29;100;533;513
27.3;100;541;513
27.31;100;554;514
27.32;100;560;516
27.33;100;562;519
27.34;100;560;523
27.35;100;552;526
27.36;100;533;531
27.37;100;517;537
27.38;100;492;542
27.39;100;480;540
27.4;100;466;546
27.41;100;467;544
27.42;100;468;545
27.43;100;468;543
27.44;100;468;541
27.45;100;475;536
27.46;100;478;532
27.47;100;482;529
27.48;100;483;525
27.49;100;485;521
27.5;100;491;516
27.51;100;499;510
27.52;100;492;510
27.53;100;499;508
27.54;100;496;507
27.55;100;496;506
27.56;100;500;508
27.57;100;504;502
27.58;100;500;503
27.59;100;511;507
27.6;100;511;508
27.61;100;513;505
27.62;100;511;512
27.63;100;514;508
27.64;100;511;511
27.65;100;518;513
27.66;100;518;514
27.67;100;519;514
27.68;100;517;513
27.69;100;518;519
27.7;100;516;519
27.71;100;520;517
27.72;100;519;519
27.73;100;527;513
27.74;100;525;511
27.75;100;523;514
27.76;100;515;513
27.77;100;515;510
27.78;100;513;508
27.79;100;513;510
27.8;100;518;510
27.81;100;514;509
27.82;100;515;507
27.83;100;516;507
27.84;100;512;510
27.85;100;489;510
27.86;100;518;513
27.87;100;639;509
27.88;100;744;513
27.89;100;663;510
27.9;100;488;509
27.91;100;475;508
27.92;100;464;508
27.93;100;472;512
27.94;100;479;514
27.95;100;485;513
27.96;100;491;513
27.97;100;499;514
27.98;100;498;514
27.99;100;507;512
28;100;510;516
28.01;100;506;518
28.02;100;513;519
28.03;100;518;519
28.04;100;524;522
28.05;100;529;519
28.06;100;536;516
28.07;100;543;518
28.08;100;549;515
28.09;100;562;515
28.1;100;569;519
28.11;100;568;520
28.12;100;559;524
28.13;100;558;526
28.14;100;537;531
28.15;100;512;534
28.16;100;487;537
28.17;100;476;543
28.18;100;467;541
28.19;100;469;544
28.2;100;464;539
28.21;100;465;540
28.22;100;466;540
28.23;100;471;531
28.24;100;475;532
28.25;100;480;525
28.26;100;481;523
28.27;100;487;518
28.28;100;483;512
28.29;100;491;509
28.3;100;487;507
28.31;100;492;508
28.32;100;491;506
28.33;100;492;508
28.34;100;496;507
28.35;100;500;507
28.36;100;495;510
28.37;100;501;506
28.38;100;503;506
28.39;100;508;510
28.4;100;502;510
28.41;100;504;511
28.42;100;508;516
28.43;100;513;517
28.44;100;509;517
28.45;100;509;518
28.46;100;506;519
28.47;100;511;520
28.48;100;508;519
28.49;100;506;521
28.5;100;506;520
28.51;100;510;518
28.52;100;509;520
28.53;100;510;514
28.54;100;508;511
28.55;100;510;509
28.56;100;504;511
28.57;100;504;509
28.58;100;501;507
28.59;100;505;509
28.6;100;507;510
28.61;100;510;508
28.62;100;510;510
28.63;100;516;512
28.64;100;514;512
28.65;100;505;515
28.66;100;496;515
28.67;100;500;511
28.68;100;501;515
28.69;100;507;513
28.7;100;501;513
28.71;100;505;514
28.72;100;506;511
28.73;100;505;514
28.74;100;494;513
28.75;100;478;513
28.76;100;551;514
28.77;100;691;514
28.78;100;752;515
28.79;100;526;514
28.8;100;459;514
28.81;100;452;515
28.82;100;455;514
28.83;100;469;515
28.84;100;463;517
28.85;100;477;512
28.86;100;476;511
28.87;100;485;514
28.88;100;484;514
28.89;100;490;512
28.9;100;493;513
28.91;100;498;512
28.92;100;501;510
28.93;100;506;511
28.94;100;510;512
28.95;100;520;512
28.96;100;521;509
28.97;100;535;513
28.98;100;542;515
28.99;100;551;517
29;100;559;515
29.01;100;560;524
29.02;100;554;524
29.03;100;546;532
29.04;100;519;534
29.05;100;500;538
29.06;100;476;543
29.07;100;465;548
29.08;100;454;550
29.09;100;454;548
29.1;100;450;547
29.11;100;454;543
29.12;100;454;538
29.13;100;462;537
29.14;100;466;528
29.15;100;467;525
29.16;100;468;517
29.17;100;472;512
29.18;100;477;507
29.19;100;481;504
29.2;100;485;506
29.21;100;486;500
29.22;100;487;503
29.23;100;491;503
29.24;100;488;504
29.25;100;496;503
29.26;100;491;507
29.27;100;498;509
29.28;100;497;509
29.29;100;506;514
29.3;100;501;516
29.31;100;507;518
29.32;100;507;522
29.33;100;510;520
29.34;100;504;520
29.35;100;505;522
29.36;100;509;522
29.37;100;511;521
29.38;100;508;519
29.39;100;514;518
29.4;100;508;516
29.41;100;510;515
29.42;100;506;512
29.43;100;503;510
29.44;100;506;509
29.45;100;507;511
29.46;100;505;508
29.47;100;507;509
29.48;100;507;506
29.49;100;509;508
29.5;100;516;511
29.51;100;515;508
29.52;100;515;510
29.53;100;522;510
29.54;100;515;510
29.55;100;509;512
29.56;100;504;512
29.57;100;507;511
29.58;100;503;512
29.59;100;506;514
29.6;100;502;513
29.61;100;506;514
29.62;100;502;511
29.63;100;505;512
29.64;100;473;509
29.65;100;513;511
29.66;100;636;511
29.67;100;760;514
29.68;100;632;509
29.69;100;476;508
29.7;100;458;509
29.71;100;451;511
29.72;100;460;511
29.73;100;470;509
29.74;100;472;510
29.75;100;479;511
29.76;100;480;512
29.77;100;490;515
29.78;100;494;515
29.79;100;497;514
29.8;100;500;519
29.81;100;502;516
29.82;100;506;515
29.83;100;513;513
29.84;100;515;514
29.85;100;527;514
29.86;100;533;513
29.87;100;540;514
29.88;100;551;515
29.89;100;563;516
29.9;100;560;519
29.91;100;557;521
29.92;100;547;527
29.93;100;537;535
29.94;100;509;539
29.95;100;490;540
29.96;100;469;544
29.97;100;459;547
29.98;100;456;545
29.99;100;456;546
30;100;460;542
30.01;100;459;539
30.02;100;461;536
30.03;100;471;531
30.04;100;472;528
30.05;100;476;523
30.06;100;473;517
30.07;100;484;512
30.08;100;478;511
30.09;100;488;508
30.1;100;484;507
30.11;100;492;505
30.12;100;492;504
30.13;100;498;504
30.14;100;491;504
30.15;100;496;504
30.16;100;500;506
30.17;100;501;506
30.18;100;505;509
30.19;100;506;510
30.2;100;505;510
30.21;100;507;511
30.22;100;507;513
30.23;100;510;515
30.24;100;510;515
30.25;100;514;518
30.26;100;510;516
30.27;100;514;517
30.28;100;510;516
30.29;100;515;515
30.3;100;508;518
30.31;100;514;515
30.32;100;513;515
30.33;100;514;515
30.34;100;509;515
30.35;100;514;514
30.36;100;510;512
30.37;100;512;510
30.38;100;513;510
30.39;100;523;510
30.4;100;519;510
30.41;100;521;513
30.42;100;511;513
30.43;100;503;512
30.44;100;507;515
30.45;100;510;513
30.46;100;510;513
30.47;100;505;512
30.48;100;511;513
30.49;100;508;512
30.5;100;504;513
30.51;100;485;513
30.52;100;503;514
30.53;100;632;514
30.54;100;752;514
30.55;100;673;513
30.56;100;474;514
30.57;100;464;513
30.58;100;455;515
30.59;100;462;515
30.6;100;471;514
30.61;100;472;513
30.62;100;477;511
30.63;100;487;512
30.64;100;486;514
30.65;100;497;512
30.66;100;497;513
30.67;100;502;513
30.68;100;503;512
30.69;100;506;512
30.7;100;512;511
30.71;100;517;507
30.72;100;521;508
30.73;100;534;508
30.74;100;542;506
30.75;100;559;508
30.76;100;559;510
30.77;100;563;512
30.78;100;566;517
30.79;100;558;519
30.8;100;540;525
30.81;100;516;530
30.82;100;491;535
30.83;100;476;541
30.84;100;464;543
30.85;100;460;546
30.86;100;461;547
30.87;100;467;548
30.88;100;466;544
30.89;100;468;544
30.9;100;475;540
30.91;100;475;533
30.92;100;474;528
30.93;100;485;523
30.94;100;481;519
30.95;100;486;514
30.96;100;487;512
30.97;100;493;508
30.98;100;489;507
30.99;100;492;505
31;100;495;505
31.01;100;502;506
31.02;100;500;505
31.03;100;498;504
31.04;100;502;507
31.05;100;507;509
31.06;100;504;513
31.07;100;509;514
31.08;100;515;515
31.09;100;514;518
31.1;100;510;518
31.11;100;513;518
31.12;100;510;517
31.13;100;515;518
31.14;100;514;517
31.15;100;519;516
31.16;100;519;518
31.17;100;517;519
31.18;100;513;517
31.19;100;519;515
31.2;100;514;515
31.21;100;521;515
31.22;100;520;513
31.23;100;521;513
31.24;100;519;514
31.25;100;529;512
31.26;100;525;511
31.27;100;519;509
31.28;100;506;508
31.29;100;508;508
31.3;100;510;508
31.31;100;513;509
31.32;100;513;508
31.33;100;516;508
31.34;100;515;509
31.35;100;509;509
31.36;100;491;511
31.37;100;514;512
31.38;100;623;511
31.39;100;743;512
31.4;100;655;515
31.41;100;477;514
31.42;100;471;514
31.43;100;473;513
31.44;100;474;514
31.45;100;483;515
31.46;100;486;513
31.47;100;492;513
31.48;100;492;514
31.49;100;500;514
31.5;100;501;513
31.51;100;508;514
31.52;100;510;513
31.53;100;516;516
31.54;100;521;515
31.55;100;529;514
31.56;100;529;516
31.57;100;537;514
31.58;100;545;515
31.59;100;559;513
31.6;100;566;514
31.61;100;574;512
31.62;100;575;515
31.63;100;575;515
31.64;100;558;519
31.65;100;544;523
31.66;100;513;528
31.67;100;496;534
31.68;100;473;538
31.69;100;468;544
31.7;100;455;545
31.71;100;461;545
31.72;100;460;546
31.73;100;467;543
31.74;100;465;538
31.75;100;475;534
31.76;100;471;528
31.77;100;480;523
31.78;100;480;520
31.79;100;487;514
31.8;100;487;513
31.81;100;488;508
31.82;100;488;506
31.83;100;491;504
31.84;100;491;503
31.85;100;494;505
31.86;100;489;504
31.87;100;501;505
31.88;100;502;510
31.89;100;504;508
31.9;100;502;512
31.91;100;510;514
31.92;100;508;515
31.93;100;509;517
31.94;100;511;518
31.95;100;516;519
31.96;100;511;522
31.97;100;513;522
31.98;100;513;522
31.99;100;510;521
32;100;507;520
32.01;100;517;519
32.02;100;511;519
32.03;100;512;518
32.04;100;512;516
32.05;100;521;514
32.06;100;522;512
32.07;100;517;511
32.08;100;507;512
32.09;100;508;510
32.1;100;502;511
32.11;100;505;509
32.12;100;502;510
32.13;100;508;508
32.14;100;507;509
32.15;100;514;509
32.16;100;501;510
32.17;100;478;513
32.18;100;530;513
32.19;100;654;513
32.2;100;739;512
32.21;100;563;515
32.22;100;463;514
32.23;100;464;514
32.24;100;459;513
32.25;100;470;513
32.26;100;474;512
32.27;100;482;513
32.28;100;481;515
32.29;100;493;515
32.3;100;496;516
32.31;100;499;515
32.32;100;499;513
32.33;100;505;515
32.34;100;504;515
32.35;100;516;514
32.36;100;515;515
32.37;100;524;515
32.38;100;528;513
32.39;100;540;513
32.4;100;547;513
32.41;100;562;513
32.42;100;562;512
32.43;100;566;515
32.44;100;558;519
32.45;100;547;523
32.46;100;527;526
32.47;100;499;531
32.48;100;481;536
32.49;100;462;542
32.5;100;459;545
32.51;100;458;547
32.52;100;455;545
32.53;100;463;545
32.54;100;461;542
32.55;100;468;538
32.56;100;468;536
32.57;100;480;530
32.58;100;479;525
32.59;100;480;521
32.6;100;480;515
32.61;100;485;513
32.62;100;483;510
32.63;100;488;503
32.64;100;487;502
32.65;100;492;504
32.66;100;490;501
32.67;100;490;501
32.68;100;495;502
32.69;100;496;501
32.7;100;493;504
32.71;100;500;504
32.72;100;499;508
32.73;100;506;509
32.74;100;504;510
32.75;100;508;513
32.76;100;506;516
32.77;100;510;520
32.78;100;510;519
32.79;100;512;522
32.8;100;516;521
32.81;100;518;523
32.82;100;523;522
32.83;100;516;522
32.84;100;500;519
32.85;100;504;520
32.86;100;502;518
32.87;100;500;515
32.88;100;500;515
32.89;100;501;513
32.9;100;500;510
32.91;100;499;508
32.92;100;483;508
32.93;100;482;509
32.94;100;574;508
32.95;100;709;510
32.96;100;710;511
32.97;100;488;514
32.98;100;459;514
32.99;100;456;514
33;100;457;516
33.01;100;466;518
33.02;100;470;516
33.03;100;478;515
33.04;100;474;515
33.05;100;481;516
33.06;100;488;513
33.07;100;489;513
33.08;100;492;516
33.09;100;497;513
33.1;100;500;513
33.11;100;505;513
33.12;100;508;512
33.13;100;520;513
33.14;100;522;513
33.15;100;538;515
33.16;100;546;512
33.17;100;562;516
33.18;100;562;518
33.19;100;559;519
33.2;100;545;524
33.21;100;531;527
33.22;100;498;530
33.23;100;484;537
33.24;100;465;543
33.25;100;453;543
33.26;100;451;544
33.27;100;452;545
33.28;100;451;544
33.29;100;460;545
33.3;100;462;541
33.31;100;462;536
33.32;100;472;535
33.33;100;472;529
33.34;100;476;523
33.35;100;480;517
33.36;100;481;512
33.37;100;487;509
33.38;100;487;508
33.39;100;492;503
33.4;100;486;504
33.41;100;491;500
33.42;100;492;504
33.43;100;496;500
33.44;100;492;502
33.45;100;501;505
33.46;100;503;509
33.47;100;503;508
33.48;100;503;512
33.49;100;506;512
33.5;100;508;516
33.51;100;510;519
33.52;100;508;519
33.53;100;513;523
33.54;100;507;519
33.55;100;514;519
33.56;100;512;522
33.57;100;520;518
33.58;100;518;520
33.59;100;521;515
33.6;100;515;517
33.61;100;508;514
33.62;100;506;514
33.63;100;508;509
33.64;100;506;511
33.65;100;505;510
33.66;100;508;508
33.67;100;503;508
33.68;100;504;504
33.69;100;499;508
33.7;100;481;507
33.71;100;561;507
33.72;100;693;512
33.73;100;767;511
33.74;100;529;510
33.75;100;466;513
33.76;100;457;514
33.77;100;462;514
33.78;100;468;512
33.79;100;474;514
33.8;100;478;513
33.81;100;483;514
33.82;100;491;511
33.83;100;497;512
33.84;100;499;516
33.85;100;503;513
33.86;100;502;515
33.87;100;510;513
33.88;100;512;512
33.89;100;517;515
33.9;100;526;511
33.91;100;536;511
33.92;100;547;513
33.93;100;562;513
33.94;100;565;515
33.95;100;569;514
33.96;100;569;518
33.97;100;561;519
33.98;100;545;527
33.99;100;524;533
34;100;498;536
34.01;100;479;543
34.02;100;464;543
34.03;100;459;544
34.04;100;459;547
34.05;100;463;545
34.06;100;459;546
34.07;100;472;542
34.08;100;471;538
34.09;100;475;532
34.1;100;478;527
34.11;100;481;520
34.12;100;487;517
34.13;100;487;511
34.14;100;487;511
34.15;100;494;507
34.16;100;494;505
34.17;100;501;504
34.18;100;499;501
34.19;100;502;502
34.2;100;496;505
34.21;100;505;504
34.22;100;503;505
34.23;100;507;507
34.24;100;508;508
34.25;100;508;513
34.26;100;510;513
34.27;100;515;515
34.28;100;509;519
34.29;100;518;520
34.3;100;514;519
34.31;100;512;518
34.32;100;509;515
34.33;100;515;514
34.34;100;515;514
34.35;100;514;515
34.36;100;511;516
34.37;100;514;516
34.38;100;514;512
34.39;100;516;511
34.4;100;516;511
34.41;100;521;510
34.42;100;520;508
34.43;100;524;508
34.44;100;506;510
34.45;100;508;510
34.46;100;506;509
34.47;100;508;507
34.48;100;508;510
34.49;100;510;511
34.5;100;507;508
34.51;100;506;508
34.52;100;511;510
34.53;100;495;513
34.54;100;490;510
34.55;100;596;511
34.56;100;736;511
34.57;100;739;514
34.58;100;501;515
34.59;100;463;513
34.6;100;454;515
34.61;100;461;515
34.62;100;463;514
34.63;100;472;512
34.64;100;476;511
34.65;100;478;514
34.66;100;489;511
34.67;100;489;510
34.68;100;494;508
34.69;100;496;506
34.7;100;496;504
34.71;100;501;504
34.72;100;507;504
34.73;100;513;505
34.74;100;522;507
34.75;100;529;507
34.76;100;537;510
34.77;100;557;512
34.78;100;559;513
34.79;100;569;514
34.8;100;563;520
34.81;100;561;527
34.82;100;540;529
34.83;100;516;534
34.84;100;493;543
34.85;100;474;543
34.86;100;463;547
34.87;100;456;549
34.88;100;452;549
34.89;100;457;550
34.9;100;463;548
34.91;100;465;543
34.92;100;464;536
34.93;100;472;533
34.94;100;471;526
34.95;100;475;519
34.96;100;478;513
34.97;100;482;511
34.98;100;483;510
34.99;100;486;506
35;100;488;505
35.01;100;491;505
35.02;100;492;505
35.03;100;496;505
35.04;100;497;506
35.05;100;499;509
35.06;100;498;510
35.07;100;502;510
35.08;100;499;514
35.09;100;509;514
35.1;100;501;515
35.11;100;509;515
35.12;100;509;515
35.13;100;508;518
35.14;100;505;515
35.15;100;510;515
35.16;100;505;519
35.17;100;507;516
35.18;100;511;515
35.19;100;509;514
35.2;100;505;514
35.21;100;512;514
35.22;100;508;511
35.23;100;508;510
35.24;100;507;512
35.25;100;512;512
35.26;100;509;508
35.27;100;511;507
35.28;100;510;511
35.29;100;522;509
35.3;100;516;508
35.31;100;519;508
35.32;100;505;508
35.33;100;507;508
35.34;100;504;511
35.35;100;509;510
35.36;100;508;511
35.37;100;508;509
35.38;100;509;512
35.39;100;507;513
35.4;100;507;511
35.41;100;502;513
35.42;100;478;511
35.43;100;540;511
35.44;100;681;513
35.45;100;786;511
35.46;100;579;513
35.47;100;468;511
35.48;100;450;513
35.49;100;451;511
35.5;100;458;510
35.51;100;464;511
35.52;100;470;513
35.53;100;479;514
35.54;100;482;513
35.55;100;487;513
35.56;100;492;511
35.57;100;494;512
35.58;100;498;510
35.59;100;505;509
35.6;100;504;507
35.61;100;514;509
35.62;100;518;509
35.63;100;530;511
35.64;100;535;509
35.65;100;547;511
35.66;100;556;511
35.67;100;566;515
35.68;100;569;518
35.69;100;563;523
35.7;100;554;531
35.71;100;533;536
35.72;100;503;541
35.73;100;484;546
35.74;100;468;551
35.75;100;461;553
35.76;100;456;554
35.77;100;457;552
35.78;100;455;548
35.79;100;463;544
35.8;100;467;539
35.81;100;472;534
35.82;100;466;528
35.83;100;476;520
35.84;100;475;515
35.85;100;480;512
35.86;100;478;506
35.87;100;483;504
35.88;100;488;501
35.89;100;489;498
35.9;100;487;498
35.91;100;496;499
35.92;100;493;499
35.93;100;499;500
35.94;100;500;502
35.95;100;500;504
35.96;100;503;507
35.97;100;511;512
35.98;100;509;514
35.99;100;510;515
36;100;512;516
36.01;100;514;519
36.02;100;511;520
36.03;100;512;523
36.04;100;510;523
36.05;100;514;521
36.06;100;511;522
36.07;100;512;518
36.08;100;511;516
36.09;100;512;516
36.1;100;513;513
36.11;100;515;511
36.12;100;513;510
36.13;100;519;509
36.14;100;519;509
36.15;100;516;508
36.16;100;506;506
36.17;100;507;506
36.18;100;502;508
36.19;100;504;508
36.2;100;503;507
36.21;100;507;508
36.22;100;507;508
36.23;100;507;507
36.24;100;501;506
36.25;100;483;509
36.26;100;509;508
36.27;100;623;510
36.28;100;745;510
36.29;100;640;511
36.3;100;462;514
36.31;100;468;512
36.32;100;462;513
36.33;100;470;514
36.34;100;474;517
36.35;100;478;517
36.36;100;485;516
36.37;100;492;515
36.38;100;491;514
36.39;100;497;512
36.4;100;502;512
36.41;100;502;513
36.42;100;509;512
36.43;100;516;510
36.44;100;517;510
36.45;100;520;510
36.46;100;528;510
36.47;100;540;510
36.48;100;552;510
36.49;100;563;510
36.5;100;573;512
36.51;100;570;515
36.52;100;565;516
36.53;100;556;524
36.54;100;535;526
36.55;100;509;531
36.56;100;482;535
36.57;100;464;540
36.58;100;456;546
36.59;100;454;548
36.6;100;452;549
36.61;100;455;547
36.62;100;457;544
36.63;100;468;541
36.64;100;473;537
36.65;100;476;532
36.66;100;476;526
36.67;100;483;522
36.68;100;485;516
36.69;100;488;512
36.7;100;483;506
36.71;100;484;502
36.72;100;491;499
36.73;100;493;499
36.74;100;491;498
36.75;100;492;497
36.76;100;494;497
36.77;100;499;499
36.78;100;497;503
36.79;100;507;504
36.8;100;502;506
36.81;100;507;510
36.82;100;503;515
36.83;100;512;517
36.84;100;512;519
36.85;100;515;521
36.86;100;512;521
36.87;100;512;520
36.88;100;513;519
36.89;100;514;520
36.9;100;515;518
36.91;100;516;517
36.92;100;513;515
36.93;100;520;515
36.94;100;523;515
36.95;100;519;513
36.96;100;512;512
36.97;100;510;510
36.98;100;502;510
36.99;100;505;508
37;100;504;508
37.01;100;507;508
37.02;100;505;507
37.03;100;506;509
37.04;100;505;507
37.05;100;482;509
37.06;100;532;507
37.07;100;653;509
37.08;100;744;509
37.09;100;565;511
37.1;100;471;513
37.11;100;466;512
37.12;100;463;512
37.13;100;479;512
37.14;100;478;513
37.15;100;483;513
37.16;100;486;512
37.17;100;492;512
37.18;100;493;512
37.19;100;503;514
37.2;100;504;514
37.21;100;507;515
37.22;100;509;513
37.23;100;519;515
37.24;100;518;512
37.25;100;526;513
37.26;100;531;511
37.27;100;537;510
37.28;100;552;510
37.29;100;562;511
37.3;100;563;513
37.31;100;566;516
37.32;100;561;519
37.33;100;549;522
37.34;100;525;527
37.35;100;502;532
37.36;100;480;538
37.37;100;465;543
37.38;100;461;545
37.39;100;456;549
37.4;100;459;549
37.41;100;463;550
37.42;100;464;547
37.43;100;469;544
37.44;100;472;539
37.45;100;475;531
37.46;100;478;527
37.47;100;484;520
37.48;100;481;514
37.49;100;484;510
37.5;100;484;505
37.51;100;489;502
37.52;100;485;497
37.53;100;493;498
37.54;100;491;497
37.55;100;494;497
37.56;100;496;499
37.57;100;508;500
37.58;100;500;503
37.59;100;507;507
37.6;100;504;509
37.61;100;511;512
37.62;100;510;515
37.63;100;510;519
37.64;100;511;518
37.65;100;513;519
37.66;100;512;521
37.67;100;513;523
37.68;100;510;522
37.69;100;520;520
37.7;100;517;521
37.71;100;523;520
37.72;100;522;519
37.73;100;516;515
37.74;100;505;514
37.75;100;506;513
37.76;100;503;513
37.77;100;504;511
37.78;100;504;511
37.79;100;504;509
37.8;100;506;508
37.81;100;506;507
37.82;100;499;507
37.83;100;477;506
37.84;100;543;507
37.85;100;675;507
37.86;100;747;508
37.87;100;545;506
37.88;100;470;507
37.89;100;457;509
37.9;100;457;511
37.91;100;470;512
37.92;100;473;513
37.93;100;481;514
37.94;100;484;515
37.95;100;487;516
37.96;100;493;515
37.97;100;497;514
37.98;100;500;516
37.99;100;504;515
38;100;504;513
38.01;100;510;512
38.02;100;515;512
38.03;100;521;511
38.04;100;529;512
38.05;100;541;511
38.06;100;551;511
38.07;100;559;511
38.08;100;567;511
38.09;100;563;514
38.1;100;560;517
38.11;100;546;520
38.12;100;520;527
38.13;100;501;531
38.14;100;478;536
38.15;100;469;542
38.16;100;457;545
38.17;100;454;549
38.18;100;462;548
38.19;100;464;546
38.2;100;466;543
38.21;100;468;540
38.22;100;474;536
38.23;100;474;529
38.24;100;481;525
38.25;100;483;520
38.26;100;483;515
38.27;100;488;511
38.28;100;485;508
38.29;100;491;504
38.3;100;490;502
38.31;100;488;498
38.32;100;490;499
38.33;100;497;498
38.34;100;495;499
38.35;100;499;502
38.36;100;500;503
38.37;100;504;506
38.38;100;507;509
38.39;100;508;511
38.4;100;507;512
38.41;100;509;515
38.42;100;511;518
38.43;100;512;518
38.44;100;513;519
38.45;100;512;519
38.46;100;513;518
38.47;100;511;519
38.48;100;510;517
38.49;100;518;515
38.5;100;518;515
38.51;100;519;515
38.52;100;513;513
38.53;100;508;513
38.54;100;507;511
38.55;100;502;512
38.56;100;511;510
38.57;100;508;514
38.58;100;507;512
38.59;100;509;513
38.6;100;506;512
38.61;100;507;511
38.62;100;477;510
38.63;100;525;509
38.64;100;657;509
38.65;100;764;509
38.66;100;613;508
38.67;100;470;507
38.68;100;457;508
38.69;100;454;507
38.7;100;461;507
38.71;100;472;505
38.72;100;476;506
38.73;100;477;509
38.74;100;484;509
38.75;100;492;511
38.76;100;493;511
38.77;100;502;512
38.78;100;499;514
38.79;100;502;513
38.8;100;508;515
38.81;100;515;513
38.82;100;519;514
38.83;100;532;515
38.84;100;535;514
38.85;100;547;515
38.86;100;558;515
38.87;100;566;517
38.88;100;568;518
38.89;100;568;522
38.9;100;549;526
38.91;100;530;533
38.92;100;507;537
38.93;100;486;543
38.94;100;471;547
38.95;100;457;550
38.96;100;457;551
38.97;100;455;549
38.98;100;456;546
38.99;100;465;541
39;100;468;537
39.01;100;471;531
39.02;100;470;526
39.03;100;476;519
39.04;100;476;513
39.05;100;481;509
39.06;100;481;504
39.07;100;484;501
39.08;100;484;498
39.09;100;488;496
39.1;100;491;496
39.11;100;492;496
39.12;100;494;499
39.13;100;498;499
39.14;100;499;504
39.15;100;504;506
39.16;100;501;510
39.17;100;507;512
39.18;100;504;515
39.19;100;511;516
39.2;100;511;519
39.21;100;512;522
39.22;100;511;522
39.23;100;511;523
39.24;100;513;522
39.25;100;514;521
39.26;100;510;519
39.27;100;513;517
39.28;100;512;516
39.29;100;516;515
39.3;100;512;513
39.31;100;514;511
39.32;100;515;508
39.33;100;519;506
39.34;100;517;505
39.35;100;512;504
39.36;100;500;502
39.37;100;505;503
39.38;100;502;502
39.39;100;508;503
39.4;100;504;505
39.41;100;510;505
39.42;100;504;505
39.43;100;508;507
39.44;100;504;507
39.45;100;483;508
39.46;100;534;510
39.47;100;675;511
39.48;100;778;512
39.49;100;602;512
39.5;100;472;512
39.51;100;459;512
39.52;100;453;512
39.53;100;466;514
39.54;100;468;513
39.55;100;472;512
39.56;100;479;512
39.57;100;483;512
39.58;100;488;511
39.59;100;494;512
39.6;100;499;511
39.61;100;499;514
39.62;100;503;513
39.63;100;507;514
39.64;100;512;515
39.65;100;523;515
39.66;100;523;515
39.67;100;537;514
39.68;100;545;514
39.69;100;557;518
39.7;100;561;518
39.71;100;566;523
39.72;100;560;525
39.73;100;551;529
39.74;100;532;536
39.75;100;511;541
39.76;100;482;545
39.77;100;469;548
39.78;100;459;551
39.79;100;455;551
39.8;100;455;551
39.81;100;459;548
39.82;100;463;544
39.83;100;463;539
39.84;100;466;532
39.85;100;470;527
39.86;100;471;519
39.87;100;478;513
39.88;100;475;508
39.89;100;477;505
39.9;100;480;501
39.91;100;487;497
39.92;100;488;497
39.93;100;488;499
39.94;100;491;499
39.95;100;497;499
39.96;100;497;500
39.97;100;496;503
39.98;100;502;504
39.99;100;503;506
