time;Sampling Frequency;ECG;Pulse
0;1000;511;514
0.001;1000;509;516
0.002;1000;507;516
0.003;1000;504;515
0.004;1000;503;516
0.005;1000;503;515
0.006;1000;504;517
0.007;1000;505;518
0.008;1000;505;517
0.009;1000;505;514
0.01;1000;505;517
0.011;1000;502;519
0.012;1000;499;518
0.013;1000;503;518
0.014;1000;509;515
0.015;1000;512;518
0.016;1000;512;519
0.017;1000;508;520
0.018;1000;508;518
0.019;1000;509;518
0.02;1000;508;519
0.021;1000;503;521
0.022;1000;499;519
0.023;1000;495;524
0.024;1000;492;518
0.025;1000;488;520
0.026;1000;486;522
0.027;1000;484;520
0.028;1000;481;521
0.029;1000;478;518
0.03;1000;480;520
0.031;1000;480;522
0.032;1000;481;522
0.033;1000;488;522
0.034;1000;493;522
0.035;1000;498;521
0.036;1000;504;523
0.037;1000;511;520
0.038;1000;519;525
0.039;1000;531;519
0.04;1000;543;523
0.041;1000;555;525
0.042;1000;565;521
0.043;1000;575;523
0.044;1000;584;519
0.045;1000;598;521
0.046;1000;615;523
0.047;1000;632;523
0.048;1000;649;521
0.049;1000;664;523
0.05;1000;678;521
0.051;1000;693;523
0.052;1000;707;523
0.053;1000;717;522
0.054;1000;728;523
0.055;1000;738;521
0.056;1000;746;520
0.057;1000;756;526
0.058;1000;767;521
0.059;1000;772;525
0.06;1000;771;522
0.061;1000;768;524
0.062;1000;764;524
0.063;1000;758;522
0.064;1000;743;520
0.065;1000;722;522
0.066;1000;697;521
0.067;1000;670;525
0.068;1000;638;524
0.069;1000;605;522
0.07;1000;575;525
0.071;1000;551;523
0.072;1000;531;523
0.073;1000;515;522
0.074;1000;499;519
0.075;1000;485;521
0.076;1000;477;523
0.077;1000;470;521
0.078;1000;466;521
0.079;1000;463;519
0.08;1000;459;521
0.081;1000;454;522
0.082;1000;449;521
0.083;1000;446;521
0.084;1000;450;519
0.085;1000;454;520
0.086;1000;459;524
0.087;1000;460;519
0.088;1000;456;522
0.089;1000;452;517
0.09;1000;450;519
0.091;1000;449;522
0.092;1000;450;519
0.093;1000;451;518
0.094;1000;454;516
0.095;1000;458;517
0.096;1000;460;518
0.097;1000;460;519
0.098;1000;462;518
0.099;1000;462;518
0.1;1000;461;517
0.101;1000;463;518
0.102;1000;463;516
0.103;1000;463;521
0.104;1000;461;515
0.105;1000;459;516
0.106;1000;460;520
0.107;1000;461;515
0.108;1000;462;517
0.109;1000;461;517
0.11;1000;458;515
0.111;1000;461;516
0.112;1000;465;517
0.113;1000;468;515
0.114;1000;470;513
0.115;1000;470;515
0.116;1000;470;517
0.117;1000;471;517
0.118;1000;466;516
0.119;1000;464;513
0.12;1000;463;515
0.121;1000;462;516
0.122;1000;462;514
0.123;1000;463;518
0.124;1000;465;513
0.125;1000;467;515
0.126;1000;465;517
0.127;1000;467;516
0.128;1000;469;517
0.129;1000;472;513
0.13;1000;472;515
0.131;1000;472;516
0.132;1000;473;515
0.133;1000;475;515
0.134;1000;476;517
0.135;1000;478;515
0.136;1000;477;516
0.137;1000;476;517
0.138;1000;477;514
0.139;1000;479;512
0.14;1000;480;514
0.141;1000;480;515
0.142;1000;478;515
0.143;1000;477;513
0.144;1000;476;515
0.145;1000;477;513
0.146;1000;478;514
0.147;1000;480;515
0.148;1000;483;513
0.149;1000;486;512
0.15;1000;486;514
0.151;1000;484;512
0.152;1000;482;516
0.153;1000;483;514
0.154;1000;483;510
0.155;1000;485;513
0.156;1000;487;513
0.157;1000;488;513
0.158;1000;488;512
0.159;1000;489;512
0.16;1000;488;511
0.161;1000;485;513
0.162;1000;483;513
0.163;1000;482;512
0.164;1000;482;513
0.165;1000;481;511
0.166;1000;481;511
0.167;1000;481;515
0.168;1000;481;511
0.169;1000;485;514
0.17;1000;488;511
0.171;1000;491;513
0.172;1000;494;513
0.173;1000;494;511
0.174;1000;492;509
0.175;1000;492;511
0.176;1000;494;512
0.177;1000;495;512
0.178;1000;493;514
0.179;1000;495;509
0.18;1000;498;511
0.181;1000;497;512
0.182;1000;496;513
0.183;1000;499;512
0.184;1000;502;509
0.185;1000;503;511
0.186;1000;502;515
0.187;1000;504;510
0.188;1000;505;514
0.189;1000;505;508
0.19;1000;506;511
0.191;1000;508;512
0.192;1000;508;512
0.193;1000;506;511
0.194;1000;506;512
0.195;1000;508;510
0.196;1000;505;510
0.197;1000;503;514
0.198;1000;504;512
0.199;1000;507;515
0.2;1000;510;511
0.201;1000;509;514
0.202;1000;506;512
0.203;1000;507;510
0.204;1000;508;510
0.205;1000;508;512
0.206;1000;510;511
0.207;1000;512;509
0.208;1000;514;511
0.209;1000;513;509
0.21;1000;515;510
0.211;1000;516;512
0.212;1000;514;512
0.213;1000;513;511
0.214;1000;514;509
0.215;1000;514;511
0.216;1000;513;511
0.217;1000;516;515
0.218;1000;517;512
0.219;1000;513;509
0.22;1000;508;511
0.221;1000;507;512
0.222;1000;510;512
0.223;1000;513;511
0.224;1000;515;511
0.225;1000;518;510
0.226;1000;516;510
0.227;1000;514;513
0.228;1000;515;513
0.229;1000;518;512
0.23;1000;520;513
0.231;1000;523;512
0.232;1000;524;512
0.233;1000;524;512
0.234;1000;524;509
0.235;1000;524;511
0.236;1000;526;511
0.237;1000;528;511
0.238;1000;528;511
0.239;1000;528;507
0.24;1000;530;510
0.241;1000;531;511
0.242;1000;531;512
0.243;1000;533;511
0.244;1000;536;508
0.245;1000;535;510
0.246;1000;534;514
0.247;1000;534;510
0.248;1000;534;512
0.249;1000;535;507
0.25;1000;536;510
0.251;1000;538;512
0.252;1000;540;511
0.253;1000;539;510
0.254;1000;539;507
0.255;1000;537;510
0.256;1000;538;511
0.257;1000;541;511
0.258;1000;547;511
0.259;1000;548;511
0.26;1000;547;510
0.261;1000;548;511
0.262;1000;551;509
0.263;1000;551;514
0.264;1000;551;508
0.265;1000;550;510
0.266;1000;551;514
0.267;1000;552;512
0.268;1000;551;511
0.269;1000;552;512
0.27;1000;553;512
0.271;1000;552;512
0.272;1000;553;512
0.273;1000;556;511
0.274;1000;558;508
0.275;1000;562;511
0.276;1000;563;513
0.277;1000;563;513
0.278;1000;564;512
0.279;1000;567;513
0.28;1000;568;512
0.281;1000;564;514
0.282;1000;559;514
0.283;1000;555;513
0.284;1000;553;513
0.285;1000;554;512
0.286;1000;557;514
0.287;1000;561;515
0.288;1000;560;514
0.289;1000;563;515
0.29;1000;565;514
0.291;1000;566;516
0.292;1000;567;516
0.293;1000;568;516
0.294;1000;568;516
0.295;1000;571;515
0.296;1000;572;518
0.297;1000;570;516
0.298;1000;562;515
0.299;1000;556;515
0.3;1000;556;514
0.301;1000;555;516
0.302;1000;554;517
0.303;1000;551;516
0.304;1000;550;517
0.305;1000;549;516
0.306;1000;551;519
0.307;1000;552;519
0.308;1000;552;519
0.309;1000;550;521
0.31;1000;547;519
0.311;1000;546;518
0.312;1000;546;523
0.313;1000;543;519
0.314;1000;538;524
0.315;1000;536;521
0.316;1000;532;520
0.317;1000;532;524
0.318;1000;534;524
0.319;1000;532;524
0.32;1000;531;524
0.321;1000;528;523
0.322;1000;524;526
0.323;1000;519;525
0.324;1000;513;525
0.325;1000;509;527
0.326;1000;507;527
0.327;1000;505;527
0.328;1000;504;530
0.329;1000;503;526
0.33;1000;502;528
0.331;1000;501;531
0.332;1000;501;531
0.333;1000;498;530
0.334;1000;494;527
0.335;1000;491;531
0.336;1000;489;532
0.337;1000;489;533
0.338;1000;488;532
0.339;1000;485;533
0.34;1000;483;533
0.341;1000;483;534
0.342;1000;483;532
0.343;1000;481;537
0.344;1000;480;531
0.345;1000;476;534
0.346;1000;471;539
0.347;1000;467;536
0.348;1000;465;535
0.349;1000;464;533
0.35;1000;467;536
0.351;1000;470;537
0.352;1000;473;537
0.353;1000;475;537
0.354;1000;475;534
0.355;1000;475;536
0.356;1000;473;539
0.357;1000;472;538
0.358;1000;469;538
0.359;1000;465;541
0.36;1000;464;539
0.361;1000;464;540
0.362;1000;465;540
0.363;1000;467;539
0.364;1000;467;536
0.365;1000;469;539
0.366;1000;470;540
0.367;1000;469;541
0.368;1000;468;540
0.369;1000;467;540
0.37;1000;465;539
0.371;1000;465;541
0.372;1000;465;542
0.373;1000;463;540
0.374;1000;461;541
0.375;1000;465;541
0.376;1000;470;540
0.377;1000;471;544
0.378;1000;470;542
0.379;1000;468;538
0.38;1000;471;540
0.381;1000;470;541
0.382;1000;467;541
0.383;1000;463;540
0.384;1000;460;541
0.385;1000;458;540
0.386;1000;457;539
0.387;1000;459;543
0.388;1000;463;542
0.389;1000;467;541
0.39;1000;469;543
0.391;1000;469;542
0.392;1000;471;541
0.393;1000;473;540
0.394;1000;476;537
0.395;1000;478;539
0.396;1000;476;539
0.397;1000;475;539
0.398;1000;473;538
0.399;1000;473;535
0.4;1000;475;537
0.401;1000;477;538
0.402;1000;477;538
0.403;1000;480;537
0.404;1000;482;534
0.405;1000;481;536
0.406;1000;478;540
0.407;1000;477;535
0.408;1000;476;538
0.409;1000;478;531
0.41;1000;484;534
0.411;1000;488;536
0.412;1000;489;535
0.413;1000;489;533
0.414;1000;490;530
0.415;1000;489;533
0.416;1000;485;533
0.417;1000;483;533
0.418;1000;480;533
0.419;1000;475;532
0.42;1000;473;531
0.421;1000;473;532
0.422;1000;472;532
0.423;1000;468;530
0.424;1000;468;526
0.425;1000;472;528
0.426;1000;475;533
0.427;1000;479;527
0.428;1000;479;530
0.429;1000;480;528
0.43;1000;481;529
0.431;1000;483;528
0.432;1000;483;527
0.433;1000;483;526
0.434;1000;484;525
0.435;1000;484;526
0.436;1000;483;527
0.437;1000;482;527
0.438;1000;480;526
0.439;1000;479;522
0.44;1000;480;524
0.441;1000;483;524
0.442;1000;485;528
0.443;1000;485;524
0.444;1000;483;520
0.445;1000;483;522
0.446;1000;483;524
0.447;1000;482;524
0.448;1000;483;522
0.449;1000;484;522
0.45;1000;484;521
0.451;1000;484;520
0.452;1000;485;524
0.453;1000;486;523
0.454;1000;485;520
0.455;1000;481;524
0.456;1000;479;521
0.457;1000;480;521
0.458;1000;483;520
0.459;1000;486;517
0.46;1000;488;519
0.461;1000;489;520
0.462;1000;488;519
0.463;1000;487;519
0.464;1000;488;515
0.465;1000;489;517
0.466;1000;493;518
0.467;1000;490;518
0.468;1000;482;517
0.469;1000;480;514
0.47;1000;481;517
0.471;1000;487;520
0.472;1000;489;515
0.473;1000;487;519
0.474;1000;487;512
0.475;1000;487;515
0.476;1000;489;516
0.477;1000;492;516
0.478;1000;490;514
0.479;1000;487;512
0.48;1000;489;514
0.481;1000;487;515
0.482;1000;486;513
0.483;1000;486;518
0.484;1000;489;511
0.485;1000;488;513
0.486;1000;488;513
0.487;1000;490;515
0.488;1000;493;515
0.489;1000;493;511
0.49;1000;493;514
0.491;1000;492;515
0.492;1000;491;513
0.493;1000;488;511
0.494;1000;488;511
0.495;1000;492;511
0.496;1000;494;512
0.497;1000;495;512
0.498;1000;496;511
0.499;1000;495;511
0.5;1000;495;511
0.501;1000;495;510
0.502;1000;496;515
0.503;1000;495;510
0.504;1000;491;513
0.505;1000;490;510
0.506;1000;489;511
0.507;1000;489;511
0.508;1000;491;510
0.509;1000;493;508
0.51;1000;493;510
0.511;1000;493;511
0.512;1000;492;511
0.513;1000;497;509
0.514;1000;501;510
0.515;1000;502;509
0.516;1000;500;511
0.517;1000;500;511
0.518;1000;502;510
0.519;1000;502;509
0.52;1000;503;510
0.521;1000;503;509
0.522;1000;503;513
0.523;1000;503;510
0.524;1000;502;510
0.525;1000;501;509
0.526;1000;500;511
0.527;1000;499;511
0.528;1000;498;509
0.529;1000;498;510
0.53;1000;498;510
0.531;1000;499;511
0.532;1000;500;511
0.533;1000;503;510
0.534;1000;505;507
0.535;1000;504;510
0.536;1000;502;511
0.537;1000;499;511
0.538;1000;499;510
0.539;1000;503;512
0.54;1000;508;510
0.541;1000;508;511
0.542;1000;504;512
0.543;1000;502;510
0.544;1000;500;508
0.545;1000;499;510
0.546;1000;499;513
0.547;1000;498;511
0.548;1000;501;511
0.549;1000;503;510
0.55;1000;503;511
0.551;1000;502;510
0.552;1000;502;513
0.553;1000;503;511
0.554;1000;502;514
0.555;1000;502;511
0.556;1000;504;512
0.557;1000;504;513
0.558;1000;505;512
0.559;1000;507;510
0.56;1000;507;512
0.561;1000;505;513
0.562;1000;504;514
0.563;1000;503;513
0.564;1000;503;511
0.565;1000;503;513
0.566;1000;501;512
0.567;1000;499;517
0.568;1000;500;514
0.569;1000;502;511
0.57;1000;502;515
0.571;1000;503;515
0.572;1000;506;514
0.573;1000;508;514
0.574;1000;508;510
0.575;1000;508;513
0.576;1000;510;514
0.577;1000;510;515
0.578;1000;508;514
0.579;1000;507;511
0.58;1000;505;513
0.581;1000;505;515
0.582;1000;507;514
0.583;1000;507;518
0.584;1000;507;514
0.585;1000;506;516
0.586;1000;505;516
0.587;1000;505;516
0.588;1000;504;515
0.589;1000;504;512
0.59;1000;504;515
0.591;1000;507;517
0.592;1000;510;517
0.593;1000;507;516
0.594;1000;506;517
0.595;1000;507;516
0.596;1000;508;518
0.597;1000;511;518
0.598;1000;512;517
0.599;1000;513;517
0.6;1000;513;518
0.601;1000;512;516
0.602;1000;513;521
0.603;1000;514;519
0.604;1000;513;515
0.605;1000;516;518
0.606;1000;519;519
0.607;1000;523;520
0.608;1000;525;518
0.609;1000;523;519
0.61;1000;520;519
0.611;1000;518;518
0.612;1000;517;521
0.613;1000;519;519
0.614;1000;520;522
0.615;1000;519;520
0.616;1000;513;521
0.617;1000;508;521
0.618;1000;506;520
0.619;1000;512;517
0.62;1000;518;520
0.621;1000;520;521
0.622;1000;518;521
0.623;1000;515;520
0.624;1000;512;521
0.625;1000;515;519
0.626;1000;518;521
0.627;1000;520;519
0.628;1000;521;524
0.629;1000;521;519
0.63;1000;525;521
0.631;1000;527;521
0.632;1000;526;525
0.633;1000;525;523
0.634;1000;522;519
0.635;1000;520;522
0.636;1000;522;522
0.637;1000;524;523
0.638;1000;523;521
0.639;1000;521;522
0.64;1000;521;521
0.641;1000;520;523
0.642;1000;518;523
0.643;1000;516;522
0.644;1000;515;522
0.645;1000;513;521
0.646;1000;514;521
0.647;1000;517;526
0.648;1000;519;521
0.649;1000;519;524
0.65;1000;519;521
0.651;1000;520;523
0.652;1000;524;523
0.653;1000;528;521
0.654;1000;526;519
0.655;1000;524;521
0.656;1000;521;522
0.657;1000;521;522
0.658;1000;524;522
0.659;1000;527;518
0.66;1000;528;521
0.661;1000;528;522
0.662;1000;527;523
0.663;1000;526;522
0.664;1000;525;519
0.665;1000;525;520
0.666;1000;525;526
0.667;1000;523;520
0.668;1000;522;524
0.669;1000;525;519
0.67;1000;526;521
0.671;1000;524;522
0.672;1000;522;522
0.673;1000;521;520
0.674;1000;523;521
0.675;1000;526;520
0.676;1000;527;519
0.677;1000;528;523
0.678;1000;528;521
0.679;1000;527;524
0.68;1000;527;521
0.681;1000;522;522
0.682;1000;515;522
0.683;1000;510;520
0.684;1000;508;518
0.685;1000;506;519
0.686;1000;504;521
0.687;1000;506;521
0.688;1000;505;520
0.689;1000;504;517
0.69;1000;505;519
0.691;1000;510;521
0.692;1000;514;521
0.693;1000;515;519
0.694;1000;514;517
0.695;1000;511;519
0.696;1000;510;524
0.697;1000;512;518
0.698;1000;511;521
0.699;1000;509;516
0.7;1000;509;519
0.701;1000;509;519
0.702;1000;508;520
0.703;1000;508;519
0.704;1000;507;516
0.705;1000;506;518
0.706;1000;505;519
0.707;1000;506;517
0.708;1000;507;521
0.709;1000;508;516
0.71;1000;509;521
0.711;1000;510;522
0.712;1000;512;517
0.713;1000;513;519
0.714;1000;513;515
0.715;1000;513;517
0.716;1000;512;518
0.717;1000;512;518
0.718;1000;512;517
0.719;1000;511;517
0.72;1000;512;516
0.721;1000;512;518
0.722;1000;510;518
0.723;1000;511;517
0.724;1000;511;518
0.725;1000;511;517
0.726;1000;510;516
0.727;1000;510;520
0.728;1000;512;516
0.729;1000;513;519
0.73;1000;514;516
0.731;1000;514;517
0.732;1000;512;517
0.733;1000;514;516
0.734;1000;517;516
0.735;1000;517;516
0.736;1000;515;517
0.737;1000;512;517
0.738;1000;511;516
0.739;1000;511;515
0.74;1000;511;516
0.741;1000;509;518
0.742;1000;509;515
0.743;1000;508;518
0.744;1000;507;514
0.745;1000;505;516
0.746;1000;503;518
0.747;1000;499;516
0.748;1000;497;515
0.749;1000;496;513
0.75;1000;500;515
0.751;1000;504;516
0.752;1000;507;516
0.753;1000;513;516
0.754;1000;519;515
0.755;1000;521;515
0.756;1000;523;516
0.757;1000;525;515
0.758;1000;525;518
0.759;1000;521;512
0.76;1000;516;516
0.761;1000;514;518
0.762;1000;510;515
0.763;1000;504;515
0.764;1000;499;512
0.765;1000;499;514
0.766;1000;501;515
0.767;1000;501;516
0.768;1000;498;515
0.769;1000;496;511
0.77;1000;492;514
0.771;1000;490;516
0.772;1000;488;515
0.773;1000;486;515
0.774;1000;486;517
0.775;1000;491;515
0.776;1000;496;516
0.777;1000;499;516
0.778;1000;503;514
0.779;1000;508;511
0.78;1000;513;513
0.781;1000;515;515
0.782;1000;519;515
0.783;1000;527;513
0.784;1000;539;514
0.785;1000;552;513
0.786;1000;564;515
0.787;1000;578;515
0.788;1000;591;513
0.789;1000;601;514
0.79;1000;615;515
0.791;1000;628;512
0.792;1000;640;516
0.793;1000;654;514
0.794;1000;665;513
0.795;1000;677;514
0.796;1000;690;514
0.797;1000;701;513
0.798;1000;712;512
0.799;1000;722;510
0.8;1000;730;512
0.801;1000;737;513
0.802;1000;743;513
0.803;1000;743;512
0.804;1000;742;512
0.805;1000;738;511
0.806;1000;736;513
0.807;1000;729;511
0.808;1000;712;515
0.809;1000;687;510
0.81;1000;658;515
0.811;1000;626;515
0.812;1000;592;511
0.813;1000;562;512
0.814;1000;536;509
0.815;1000;514;512
0.816;1000;498;512
0.817;1000;483;513
0.818;1000;472;511
0.819;1000;465;512
0.82;1000;460;511
0.821;1000;458;510
0.822;1000;455;514
0.823;1000;455;514
0.824;1000;454;510
0.825;1000;455;511
0.826;1000;463;515
0.827;1000;466;512
0.828;1000;468;512
0.829;1000;469;509
0.83;1000;468;512
0.831;1000;467;513
0.832;1000;466;513
0.833;1000;468;514
0.834;1000;470;512
0.835;1000;468;512
0.836;1000;468;511
0.837;1000;468;515
0.838;1000;467;513
0.839;1000;465;516
0.84;1000;467;513
0.841;1000;465;514
0.842;1000;463;514
0.843;1000;463;512
0.844;1000;464;510
0.845;1000;465;512
0.846;1000;464;513
0.847;1000;465;514
0.848;1000;468;513
0.849;1000;471;510
0.85;1000;475;512
0.851;1000;480;514
0.852;1000;483;514
0.853;1000;484;513
0.854;1000;480;510
0.855;1000;476;513
0.856;1000;474;518
0.857;1000;473;512
0.858;1000;474;515
0.859;1000;474;510
0.86;1000;475;513
0.861;1000;475;514
0.862;1000;476;514
0.863;1000;477;513
0.864;1000;477;510
0.865;1000;476;513
0.866;1000;478;515
0.867;1000;484;513
0.868;1000;487;517
0.869;1000;486;512
0.87;1000;487;517
0.871;1000;488;518
0.872;1000;488;513
0.873;1000;487;515
0.874;1000;487;511
0.875;1000;487;514
0.876;1000;487;515
0.877;1000;487;515
0.878;1000;487;514
0.879;1000;487;514
0.88;1000;487;513
0.881;1000;486;515
0.882;1000;487;515
0.883;1000;489;518
0.884;1000;489;515
0.885;1000;487;514
0.886;1000;491;514
0.887;1000;493;517
0.888;1000;496;515
0.889;1000;498;517
0.89;1000;499;514
0.891;1000;497;515
0.892;1000;496;516
0.893;1000;497;515
0.894;1000;499;512
0.895;1000;500;514
0.896;1000;500;516
0.897;1000;499;516
0.898;1000;499;515
0.899;1000;499;514
0.9;1000;499;515
0.901;1000;499;516
0.902;1000;498;514
0.903;1000;497;518
0.904;1000;497;513
0.905;1000;499;515
0.906;1000;498;519
0.907;1000;498;516
0.908;1000;497;515
0.909;1000;496;513
0.91;1000;496;515
0.911;1000;498;516
0.912;1000;504;517
0.913;1000;505;516
0.914;1000;503;516
0.915;1000;500;515
0.916;1000;503;516
0.917;1000;504;515
0.918;1000;500;519
0.919;1000;501;516
0.92;1000;503;516
0.921;1000;507;518
0.922;1000;510;516
0.923;1000;511;515
0.924;1000;510;515
0.925;1000;510;514
0.926;1000;508;515
0.927;1000;506;516
0.928;1000;505;515
0.929;1000;503;515
0.93;1000;502;515
0.931;1000;507;516
0.932;1000;507;517
0.933;1000;508;519
0.934;1000;508;515
0.935;1000;511;515
0.936;1000;512;516
0.937;1000;516;515
0.938;1000;518;513
0.939;1000;518;513
0.94;1000;513;513
0.941;1000;512;514
0.942;1000;513;515
0.943;1000;513;513
0.944;1000;511;514
0.945;1000;509;513
0.946;1000;508;513
0.947;1000;509;515
0.948;1000;511;514
0.949;1000;514;515
0.95;1000;516;515
0.951;1000;519;513
0.952;1000;526;518
0.953;1000;531;514
0.954;1000;529;515
0.955;1000;529;515
0.956;1000;529;515
0.957;1000;528;517
0.958;1000;526;517
0.959;1000;524;513
0.96;1000;525;515
0.961;1000;524;517
0.962;1000;520;517
0.963;1000;519;516
0.964;1000;519;515
0.965;1000;520;516
0.966;1000;520;517
0.967;1000;521;515
0.968;1000;524;519
0.969;1000;524;514
0.97;1000;526;517
0.971;1000;527;519
0.972;1000;528;518
0.973;1000;532;516
0.974;1000;535;513
0.975;1000;537;516
0.976;1000;535;517
0.977;1000;533;517
0.978;1000;533;516
0.979;1000;534;517
0.98;1000;535;516
0.981;1000;534;517
0.982;1000;532;516
0.983;1000;532;519
0.984;1000;534;514
0.985;1000;534;516
0.986;1000;534;519
0.987;1000;535;516
0.988;1000;535;515
0.989;1000;535;513
0.99;1000;534;515
0.991;1000;536;517
0.992;1000;540;517
0.993;1000;545;516
0.994;1000;548;513
0.995;1000;550;515
0.996;1000;549;518
0.997;1000;548;516
0.998;1000;549;517
0.999;1000;550;519
1;1000;552;516
1.001;1000;553;518
1.002;1000;552;518
1.003;1000;552;516
1.004;1000;552;513
1.005;1000;552;515
1.006;1000;552;517
1.007;1000;553;517
1.008;1000;555;516
1.009;1000;556;516
1.01;1000;557;516
1.011;1000;558;517
1.012;1000;559;515
1.013;1000;560;519
1.014;1000;560;513
1.015;1000;559;518
1.016;1000;561;519
1.017;1000;559;515
1.018;1000;558;515
1.019;1000;561;512
1.02;1000;564;515
1.021;1000;562;516
1.022;1000;559;516
1.023;1000;556;516
1.024;1000;554;513
1.025;1000;555;515
1.026;1000;555;516
1.027;1000;558;517
1.028;1000;562;517
1.029;1000;564;514
1.03;1000;564;516
1.031;1000;566;521
1.032;1000;564;515
1.033;1000;565;519
1.034;1000;566;516
1.035;1000;567;518
1.036;1000;566;518
1.037;1000;568;518
1.038;1000;571;517
1.039;1000;569;515
1.04;1000;566;518
1.041;1000;561;518
1.042;1000;559;519
1.043;1000;557;518
1.044;1000;555;519
1.045;1000;552;518
1.046;1000;550;520
1.047;1000;547;520
1.048;1000;546;520
1.049;1000;544;521
1.05;1000;543;520
1.051;1000;542;518
1.052;1000;541;523
1.053;1000;539;521
1.054;1000;537;524
1.055;1000;537;521
1.056;1000;533;523
1.057;1000;530;522
1.058;1000;528;527
1.059;1000;526;521
1.06;1000;524;524
1.061;1000;520;526
1.062;1000;515;524
1.063;1000;513;525
1.064;1000;510;527
1.065;1000;510;525
1.066;1000;508;527
1.067;1000;505;527
1.068;1000;504;526
1.069;1000;502;524
1.07;1000;500;527
1.071;1000;499;528
1.072;1000;498;529
1.073;1000;497;528
1.074;1000;493;528
1.075;1000;489;528
1.076;1000;486;530
1.077;1000;484;531
1.078;1000;481;530
1.079;1000;479;530
1.08;1000;478;531
1.081;1000;477;530
1.082;1000;475;535
1.083;1000;471;533
1.084;1000;469;530
1.085;1000;468;532
1.086;1000;465;534
1.087;1000;462;534
1.088;1000;462;534
1.089;1000;462;534
1.09;1000;462;534
1.091;1000;464;534
1.092;1000;465;538
1.093;1000;467;536
1.094;1000;470;538
1.095;1000;476;536
1.096;1000;475;538
1.097;1000;470;538
1.098;1000;464;537
1.099;1000;462;534
1.1;1000;461;537
1.101;1000;458;539
1.102;1000;456;538
1.103;1000;459;539
1.104;1000;459;536
1.105;1000;461;538
1.106;1000;461;540
1.107;1000;459;540
1.108;1000;459;540
1.109;1000;460;536
1.11;1000;459;539
1.111;1000;459;544
1.112;1000;461;538
1.113;1000;461;543
1.114;1000;460;537
1.115;1000;460;540
1.116;1000;457;541
1.117;1000;455;542
1.118;1000;453;541
1.119;1000;454;537
1.12;1000;457;540
1.121;1000;457;541
1.122;1000;460;540
1.123;1000;462;544
1.124;1000;463;539
1.125;1000;463;541
1.126;1000;460;540
1.127;1000;460;543
1.128;1000;460;543
1.129;1000;462;539
1.13;1000;463;542
1.131;1000;463;543
1.132;1000;464;542
1.133;1000;466;540
1.134;1000;469;541
1.135;1000;472;540
1.136;1000;473;542
1.137;1000;472;542
1.138;1000;472;542
1.139;1000;471;541
1.14;1000;470;540
1.141;1000;467;539
1.142;1000;466;544
1.143;1000;465;540
1.144;1000;464;542
1.145;1000;462;539
1.146;1000;463;540
1.147;1000;464;540
1.148;1000;464;538
1.149;1000;466;539
1.15;1000;471;537
1.151;1000;473;539
1.152;1000;476;539
1.153;1000;475;537
1.154;1000;474;536
1.155;1000;476;537
1.156;1000;477;538
1.157;1000;478;536
1.158;1000;478;539
1.159;1000;475;534
1.16;1000;473;536
1.161;1000;473;538
1.162;1000;475;536
1.163;1000;475;535
1.164;1000;475;531
1.165;1000;476;534
1.166;1000;476;534
1.167;1000;479;534
1.168;1000;480;534
1.169;1000;480;533
1.17;1000;478;532
1.171;1000;478;533
1.172;1000;479;531
1.173;1000;480;535
1.174;1000;481;528
1.175;1000;482;532
1.176;1000;483;534
1.177;1000;483;529
1.178;1000;480;529
1.179;1000;477;526
1.18;1000;475;528
1.181;1000;471;528
1.182;1000;468;528
1.183;1000;469;527
1.184;1000;472;524
1.185;1000;472;526
1.186;1000;471;527
1.187;1000;467;527
1.188;1000;466;526
1.189;1000;468;523
1.19;1000;471;524
1.191;1000;476;528
1.192;1000;485;523
1.193;1000;490;526
1.194;1000;492;522
1.195;1000;490;524
1.196;1000;491;523
1.197;1000;493;524
1.198;1000;493;522
1.199;1000;494;518
1.2;1000;494;520
1.201;1000;496;521
1.202;1000;495;522
1.203;1000;488;520
1.204;1000;486;520
1.205;1000;483;519
1.206;1000;481;520
1.207;1000;481;520
1.208;1000;485;519
1.209;1000;487;518
1.21;1000;486;519
1.211;1000;483;520
1.212;1000;481;515
1.213;1000;483;519
1.214;1000;481;513
1.215;1000;480;516
1.216;1000;481;517
1.217;1000;483;516
1.218;1000;486;516
1.219;1000;484;514
1.22;1000;482;515
1.221;1000;480;516
1.222;1000;480;514
1.223;1000;479;517
1.224;1000;478;512
1.225;1000;478;514
1.226;1000;480;517
1.227;1000;480;515
1.228;1000;479;513
1.229;1000;478;510
1.23;1000;482;512
1.231;1000;485;513
1.232;1000;487;513
1.233;1000;490;512
1.234;1000;491;512
1.235;1000;490;511
1.236;1000;488;512
1.237;1000;487;510
1.238;1000;486;514
1.239;1000;486;508
1.24;1000;486;513
1.241;1000;488;514
1.242;1000;487;510
1.243;1000;484;511
1.244;1000;482;507
1.245;1000;482;510
1.246;1000;483;511
1.247;1000;483;511
1.248;1000;483;510
1.249;1000;483;506
1.25;1000;482;508
1.251;1000;483;511
1.252;1000;486;510
1.253;1000;488;510
1.254;1000;489;512
1.255;1000;489;509
1.256;1000;488;510
1.257;1000;489;510
1.258;1000;488;510
1.259;1000;487;506
1.26;1000;486;509
1.261;1000;485;510
1.262;1000;486;510
1.263;1000;486;508
1.264;1000;487;509
1.265;1000;487;508
1.266;1000;489;508
1.267;1000;492;511
1.268;1000;494;510
1.269;1000;495;506
1.27;1000;495;511
1.271;1000;496;512
1.272;1000;497;508
1.273;1000;496;509
1.274;1000;496;506
1.275;1000;495;508
1.276;1000;493;508
1.277;1000;492;509
1.278;1000;494;508
1.279;1000;495;505
1.28;1000;495;508
1.281;1000;495;509
1.282;1000;498;509
1.283;1000;499;508
1.284;1000;499;505
1.285;1000;498;507
1.286;1000;498;512
1.287;1000;497;507
1.288;1000;494;510
1.289;1000;491;507
1.29;1000;488;509
1.291;1000;489;510
1.292;1000;489;510
1.293;1000;493;509
1.294;1000;497;506
1.295;1000;501;508
1.296;1000;502;510
1.297;1000;499;510
1.298;1000;498;508
1.299;1000;499;509
1.3;1000;499;509
1.301;1000;500;510
1.302;1000;498;511
1.303;1000;494;510
1.304;1000;491;507
1.305;1000;486;510
1.306;1000;484;514
1.307;1000;483;509
1.308;1000;483;513
1.309;1000;485;508
1.31;1000;491;511
1.311;1000;494;513
1.312;1000;496;513
1.313;1000;496;513
1.314;1000;499;512
1.315;1000;504;513
1.316;1000;507;514
1.317;1000;509;515
1.318;1000;510;514
1.319;1000;514;516
1.32;1000;517;514
1.321;1000;514;515
1.322;1000;511;516
1.323;1000;505;515
1.324;1000;503;511
1.325;1000;502;514
1.326;1000;503;516
1.327;1000;504;516
1.328;1000;506;515
1.329;1000;507;515
1.33;1000;505;515
1.331;1000;506;516
1.332;1000;508;517
1.333;1000;506;515
1.334;1000;504;517
1.335;1000;504;517
1.336;1000;504;515
1.337;1000;507;519
1.338;1000;509;516
1.339;1000;508;513
1.34;1000;508;515
1.341;1000;506;517
1.342;1000;507;516
1.343;1000;509;516
1.344;1000;505;516
1.345;1000;504;516
1.346;1000;503;515
1.347;1000;505;519
1.348;1000;507;519
1.349;1000;508;517
1.35;1000;510;521
1.351;1000;512;519
1.352;1000;513;519
1.353;1000;515;519
1.354;1000;518;516
1.355;1000;519;519
1.356;1000;518;519
1.357;1000;515;519
1.358;1000;515;519
1.359;1000;515;516
1.36;1000;515;519
1.361;1000;515;520
1.362;1000;515;520
1.363;1000;517;520
1.364;1000;517;517
1.365;1000;518;519
1.366;1000;517;523
1.367;1000;517;519
1.368;1000;515;522
1.369;1000;513;517
1.37;1000;511;519
1.371;1000;512;523
1.372;1000;514;521
1.373;1000;518;520
1.374;1000;519;517
1.375;1000;519;520
1.376;1000;519;521
1.377;1000;518;521
1.378;1000;515;521
1.379;1000;514;521
1.38;1000;512;520
1.381;1000;508;522
1.382;1000;505;520
1.383;1000;505;524
1.384;1000;504;519
1.385;1000;505;521
1.386;1000;508;525
1.387;1000;509;520
1.388;1000;508;523
1.389;1000;507;519
1.39;1000;507;521
1.391;1000;508;522
1.392;1000;510;522
1.393;1000;510;522
1.394;1000;509;521
1.395;1000;509;521
1.396;1000;510;520
1.397;1000;511;524
1.398;1000;511;524
1.399;1000;511;519
1.4;1000;509;521
1.401;1000;508;523
1.402;1000;504;520
1.403;1000;499;524
1.404;1000;499;519
1.405;1000;503;522
1.406;1000;506;524
1.407;1000;508;524
1.408;1000;508;523
1.409;1000;506;520
1.41;1000;505;522
1.411;1000;507;524
1.412;1000;505;523
1.413;1000;503;523
1.414;1000;506;525
1.415;1000;512;523
1.416;1000;515;524
1.417;1000;515;525
1.418;1000;513;523
1.419;1000;510;519
1.42;1000;504;521
1.421;1000;499;523
1.422;1000;498;523
1.423;1000;499;522
1.424;1000;499;522
1.425;1000;504;521
1.426;1000;509;522
1.427;1000;510;523
1.428;1000;511;522
1.429;1000;512;522
1.43;1000;512;522
1.431;1000;513;520
1.432;1000;513;525
1.433;1000;512;521
1.434;1000;510;518
1.435;1000;508;519
1.436;1000;508;522
1.437;1000;509;520
1.438;1000;509;523
1.439;1000;508;519
1.44;1000;508;520
1.441;1000;507;523
1.442;1000;507;522
1.443;1000;507;522
1.444;1000;509;519
1.445;1000;511;521
1.446;1000;512;521
1.447;1000;512;521
1.448;1000;509;521
1.449;1000;505;522
1.45;1000;503;521
1.451;1000;504;521
1.452;1000;505;520
1.453;1000;504;520
1.454;1000;503;516
1.455;1000;503;519
1.456;1000;503;520
1.457;1000;503;520
1.458;1000;505;519
1.459;1000;506;518
1.46;1000;506;519
1.461;1000;505;520
1.462;1000;505;518
1.463;1000;504;523
1.464;1000;502;515
1.465;1000;498;519
1.466;1000;498;521
1.467;1000;501;519
1.468;1000;503;518
1.469;1000;506;518
1.47;1000;509;517
1.471;1000;510;518
1.472;1000;509;519
1.473;1000;508;518
1.474;1000;507;516
1.475;1000;504;518
1.476;1000;496;518
1.477;1000;490;517
1.478;1000;486;519
1.479;1000;484;515
1.48;1000;483;518
1.481;1000;483;518
1.482;1000;483;519
1.483;1000;483;517
1.484;1000;484;513
1.485;1000;487;515
1.486;1000;493;517
1.487;1000;499;517
1.488;1000;504;517
1.489;1000;512;516
1.49;1000;518;515
1.491;1000;526;515
1.492;1000;536;518
1.493;1000;548;517
1.494;1000;559;519
1.495;1000;569;516
1.496;1000;581;516
1.497;1000;593;516
1.498;1000;609;515
1.499;1000;622;512
1.5;1000;636;514
1.501;1000;649;515
1.502;1000;662;515
1.503;1000;672;514
1.504;1000;681;514
1.505;1000;692;513
1.506;1000;703;514
1.507;1000;711;514
1.508;1000;722;513
1.509;1000;730;515
1.51;1000;736;515
1.511;1000;736;512
1.512;1000;735;516
1.513;1000;733;513
1.514;1000;728;511
1.515;1000;717;512
1.516;1000;695;513
1.517;1000;668;513
1.518;1000;642;512
1.519;1000;612;509
1.52;1000;581;512
1.521;1000;552;512
1.522;1000;527;513
1.523;1000;505;513
1.524;1000;489;511
1.525;1000;476;511
1.526;1000;467;512
1.527;1000;462;513
1.528;1000;459;512
1.529;1000;458;511
1.53;1000;460;513
1.531;1000;461;511
1.532;1000;461;514
1.533;1000;461;515
1.534;1000;460;510
1.535;1000;460;512
1.536;1000;460;514
1.537;1000;459;513
1.538;1000;461;513
1.539;1000;465;511
1.54;1000;467;513
1.541;1000;464;514
1.542;1000;459;512
1.543;1000;456;515
1.544;1000;455;510
1.545;1000;455;513
1.546;1000;458;515
1.547;1000;462;514
1.548;1000;461;512
1.549;1000;461;510
1.55;1000;462;512
1.551;1000;462;513
1.552;1000;465;513
1.553;1000;469;513
1.554;1000;472;512
1.555;1000;473;512
1.556;1000;472;513
1.557;1000;472;512
1.558;1000;471;515
1.559;1000;474;512
1.56;1000;476;513
1.561;1000;478;514
1.562;1000;476;512
1.563;1000;478;512
1.564;1000;476;511
1.565;1000;475;511
1.566;1000;474;512
1.567;1000;474;512
1.568;1000;476;512
1.569;1000;477;512
1.57;1000;478;512
1.571;1000;478;513
1.572;1000;477;513
1.573;1000;478;512
1.574;1000;481;512
1.575;1000;485;512
1.576;1000;487;514
1.577;1000;485;511
1.578;1000;482;511
1.579;1000;481;510
1.58;1000;479;509
1.581;1000;479;511
1.582;1000;482;509
1.583;1000;483;512
1.584;1000;482;511
1.585;1000;481;511
1.586;1000;481;512
1.587;1000;481;513
1.588;1000;481;513
1.589;1000;484;512
1.59;1000;487;512
1.591;1000;488;514
1.592;1000;491;512
1.593;1000;492;511
1.594;1000;490;508
1.595;1000;487;510
1.596;1000;485;512
1.597;1000;484;511
1.598;1000;486;513
1.599;1000;489;511
1.6;1000;492;511
1.601;1000;492;514
1.602;1000;491;512
1.603;1000;490;515
1.604;1000;491;511
1.605;1000;492;513
1.606;1000;492;515
1.607;1000;492;514
1.608;1000;492;514
1.609;1000;493;517
1.61;1000;496;515
1.611;1000;494;516
1.612;1000;495;516
1.613;1000;497;515
1.614;1000;499;512
1.615;1000;501;515
1.616;1000;500;516
1.617;1000;497;516
1.618;1000;496;515
1.619;1000;497;514
1.62;1000;501;516
1.621;1000;503;517
1.622;1000;504;514
1.623;1000;504;519
1.624;1000;507;512
1.625;1000;506;515
1.626;1000;506;518
1.627;1000;507;516
1.628;1000;507;516
1.629;1000;506;512
1.63;1000;504;515
1.631;1000;503;516
1.632;1000;503;516
1.633;1000;505;516
1.634;1000;505;515
1.635;1000;505;516
1.636;1000;504;517
1.637;1000;505;515
1.638;1000;504;518
1.639;1000;505;513
1.64;1000;504;517
1.641;1000;504;518
1.642;1000;506;517
1.643;1000;507;516
1.644;1000;507;512
1.645;1000;508;515
1.646;1000;509;516
1.647;1000;508;516
1.648;1000;508;516
1.649;1000;507;515
1.65;1000;505;515
1.651;1000;504;516
1.652;1000;510;515
1.653;1000;515;518
1.654;1000;516;513
1.655;1000;512;517
1.656;1000;511;518
1.657;1000;511;515
1.658;1000;513;515
1.659;1000;515;511
1.66;1000;516;514
1.661;1000;515;515
1.662;1000;513;515
1.663;1000;514;515
1.664;1000;515;511
1.665;1000;515;514
1.666;1000;516;515
1.667;1000;521;515
1.668;1000;525;515
1.669;1000;527;511
1.67;1000;530;515
1.671;1000;530;519
1.672;1000;530;513
1.673;1000;531;517
1.674;1000;530;512
1.675;1000;527;516
1.676;1000;525;516
1.677;1000;524;515
1.678;1000;523;515
1.679;1000;525;511
1.68;1000;523;514
1.681;1000;520;515
1.682;1000;519;515
1.683;1000;520;515
1.684;1000;525;512
1.685;1000;527;514
1.686;1000;526;515
1.687;1000;527;516
1.688;1000;529;515
1.689;1000;531;512
1.69;1000;532;514
1.691;1000;533;519
1.692;1000;535;513
1.693;1000;536;517
1.694;1000;538;512
1.695;1000;539;515
1.696;1000;540;516
1.697;1000;541;516
1.698;1000;543;515
1.699;1000;544;514
1.7;1000;545;516
1.701;1000;543;516
1.702;1000;542;515
1.703;1000;543;518
1.704;1000;545;513
1.705;1000;548;515
1.706;1000;550;518
1.707;1000;552;516
1.708;1000;554;515
1.709;1000;555;512
1.71;1000;553;515
1.711;1000;552;515
1.712;1000;550;516
1.713;1000;551;516
1.714;1000;548;515
1.715;1000;547;515
1.716;1000;545;517
1.717;1000;547;515
1.718;1000;548;518
1.719;1000;553;513
1.72;1000;557;517
1.721;1000;560;519
1.722;1000;559;516
1.723;1000;561;516
1.724;1000;560;513
1.725;1000;556;516
1.726;1000;556;517
1.727;1000;558;516
1.728;1000;561;516
1.729;1000;561;513
1.73;1000;558;515
1.731;1000;556;519
1.732;1000;559;518
1.733;1000;558;518
1.734;1000;559;515
1.735;1000;561;519
1.736;1000;563;518
1.737;1000;564;518
1.738;1000;565;519
1.739;1000;565;515
1.74;1000;566;518
1.741;1000;568;519
1.742;1000;568;519
1.743;1000;567;519
1.744;1000;564;515
1.745;1000;561;519
1.746;1000;559;519
1.747;1000;557;520
1.748;1000;556;520
1.749;1000;552;517
1.75;1000;550;519
1.751;1000;550;525
1.752;1000;550;519
1.753;1000;546;524
1.754;1000;543;520
1.755;1000;542;521
1.756;1000;542;519
1.757;1000;543;523
1.758;1000;544;524
1.759;1000;545;519
1.76;1000;543;522
1.761;1000;539;525
1.762;1000;536;524
1.763;1000;535;525
1.764;1000;534;523
1.765;1000;532;524
1.766;1000;527;526
1.767;1000;523;526
1.768;1000;520;526
1.769;1000;520;528
1.77;1000;520;527
1.771;1000;516;527
1.772;1000;513;528
1.773;1000;509;527
1.774;1000;510;525
1.775;1000;511;528
1.776;1000;510;529
1.777;1000;508;530
1.778;1000;506;529
1.779;1000;504;529
1.78;1000;500;531
1.781;1000;497;532
1.782;1000;496;531
1.783;1000;494;536
1.784;1000;494;528
1.785;1000;491;532
1.786;1000;484;535
1.787;1000;479;534
1.788;1000;478;534
1.789;1000;478;534
1.79;1000;476;534
1.791;1000;471;536
1.792;1000;468;536
1.793;1000;466;536
1.794;1000;467;533
1.795;1000;470;536
1.796;1000;473;538
1.797;1000;472;537
1.798;1000;468;541
1.799;1000;467;535
1.8;1000;466;541
1.801;1000;467;542
1.802;1000;465;538
1.803;1000;463;540
1.804;1000;462;536
1.805;1000;462;540
1.806;1000;461;540
1.807;1000;460;540
1.808;1000;459;541
1.809;1000;460;540
1.81;1000;462;541
1.811;1000;464;542
1.812;1000;466;543
1.813;1000;465;543
1.814;1000;461;542
1.815;1000;459;542
1.816;1000;457;542
1.817;1000;456;547
1.818;1000;458;543
1.819;1000;465;545
1.82;1000;467;544
1.821;1000;464;545
1.822;1000;461;545
1.823;1000;462;544
1.824;1000;465;542
1.825;1000;466;544
1.826;1000;467;543
1.827;1000;467;547
1.828;1000;464;547
1.829;1000;462;545
1.83;1000;463;544
1.831;1000;463;544
1.832;1000;462;547
1.833;1000;461;547
1.834;1000;464;543
1.835;1000;461;547
1.836;1000;458;546
1.837;1000;461;546
1.838;1000;466;545
1.839;1000;467;545
1.84;1000;467;544
1.841;1000;470;546
1.842;1000;469;545
1.843;1000;467;545
1.844;1000;467;544
1.845;1000;467;543
1.846;1000;465;545
1.847;1000;466;543
1.848;1000;467;547
1.849;1000;469;541
1.85;1000;469;547
1.851;1000;470;547
1.852;1000;473;543
1.853;1000;476;543
1.854;1000;479;540
1.855;1000;480;542
1.856;1000;480;543
1.857;1000;481;543
1.858;1000;479;542
1.859;1000;475;537
1.86;1000;471;540
1.861;1000;471;542
1.862;1000;472;540
1.863;1000;475;542
1.864;1000;476;537
1.865;1000;477;539
1.866;1000;478;540
1.867;1000;477;539
1.868;1000;478;539
1.869;1000;481;536
1.87;1000;481;537
1.871;1000;478;538
1.872;1000;475;538
1.873;1000;473;537
1.874;1000;471;533
1.875;1000;468;535
1.876;1000;470;537
1.877;1000;474;536
1.878;1000;478;535
1.879;1000;482;537
1.88;1000;483;534
1.881;1000;480;534
1.882;1000;479;535
1.883;1000;479;533
1.884;1000;479;528
1.885;1000;480;531
1.886;1000;479;531
1.887;1000;479;531
1.888;1000;481;530
1.889;1000;483;529
1.89;1000;484;529
1.891;1000;486;529
1.892;1000;486;529
1.893;1000;483;528
1.894;1000;483;524
1.895;1000;484;527
1.896;1000;486;530
1.897;1000;488;525
1.898;1000;489;528
1.899;1000;491;523
1.9;1000;493;526
1.901;1000;494;525
1.902;1000;491;524
1.903;1000;488;523
1.904;1000;486;519
1.905;1000;485;521
1.906;1000;484;523
1.907;1000;485;522
1.908;1000;484;520
1.909;1000;483;519
1.91;1000;482;521
1.911;1000;480;521
1.912;1000;479;518
1.913;1000;479;521
1.914;1000;480;515
1.915;1000;481;518
1.916;1000;482;518
1.917;1000;481;518
1.918;1000;479;517
1.919;1000;479;513
1.92;1000;481;515
1.921;1000;481;516
1.922;1000;479;515
1.923;1000;474;518
1.924;1000;475;512
1.925;1000;476;514
1.926;1000;477;513
1.927;1000;479;516
1.928;1000;484;515
1.929;1000;485;511
1.93;1000;485;514
1.931;1000;486;515
1.932;1000;487;512
1.933;1000;488;511
1.934;1000;488;511
1.935;1000;487;510
1.936;1000;487;511
1.937;1000;487;511
1.938;1000;487;511
1.939;1000;488;510
1.94;1000;489;509
1.941;1000;487;510
1.942;1000;483;510
1.943;1000;481;508
1.944;1000;480;508
1.945;1000;480;509
1.946;1000;480;507
1.947;1000;478;511
1.948;1000;480;508
1.949;1000;483;504
1.95;1000;486;507
1.951;1000;488;508
1.952;1000;491;508
1.953;1000;492;507
1.954;1000;493;505
1.955;1000;491;506
1.956;1000;487;504
1.957;1000;487;509
1.958;1000;488;506
1.959;1000;488;509
1.96;1000;487;506
1.961;1000;488;507
1.962;1000;490;507
1.963;1000;489;505
1.964;1000;487;502
1.965;1000;487;504
1.966;1000;488;505
1.967;1000;489;505
1.968;1000;489;505
1.969;1000;489;501
1.97;1000;491;504
1.971;1000;491;505
1.972;1000;490;505
1.973;1000;490;505
1.974;1000;492;501
1.975;1000;493;504
1.976;1000;493;508
1.977;1000;492;503
1.978;1000;490;507
1.979;1000;489;501
1.98;1000;488;504
1.981;1000;485;506
1.982;1000;487;505
1.983;1000;487;505
1.984;1000;484;502
1.985;1000;480;504
1.986;1000;480;506
1.987;1000;481;504
1.988;1000;487;508
1.989;1000;496;503
1.99;1000;500;509
1.991;1000;499;509
1.992;1000;497;507
1.993;1000;497;508
1.994;1000;495;504
1.995;1000;494;506
1.996;1000;495;506
1.997;1000;498;506
1.998;1000;502;506
1.999;1000;503;503
2;1000;502;505
2.001;1000;496;506
2.002;1000;494;507
2.003;1000;492;506
2.004;1000;490;506
2.005;1000;491;505
2.006;1000;489;507
2.007;1000;489;508
2.008;1000;492;507
2.009;1000;492;507
2.01;1000;492;508
2.011;1000;495;506
2.012;1000;496;509
2.013;1000;495;510
2.014;1000;496;506
2.015;1000;498;509
2.016;1000;500;510
2.017;1000;500;510
2.018;1000;503;510
2.019;1000;505;508
2.02;1000;504;510
2.021;1000;505;511
2.022;1000;506;510
2.023;1000;508;513
2.024;1000;507;509
2.025;1000;505;512
2.026;1000;501;514
2.027;1000;500;513
2.028;1000;501;512
2.029;1000;502;509
2.03;1000;504;512
2.031;1000;505;513
2.032;1000;505;514
2.033;1000;504;514
2.034;1000;503;513
2.035;1000;502;513
2.036;1000;503;515
2.037;1000;502;513
2.038;1000;503;518
2.039;1000;505;512
2.04;1000;505;517
2.041;1000;505;518
2.042;1000;504;515
2.043;1000;502;515
2.044;1000;503;513
2.045;1000;503;515
2.046;1000;506;518
2.047;1000;510;517
2.048;1000;512;518
2.049;1000;513;514
2.05;1000;512;516
2.051;1000;511;519
2.052;1000;512;519
2.053;1000;514;519
2.054;1000;516;521
2.055;1000;518;519
2.056;1000;522;520
2.057;1000;521;520
2.058;1000;520;519
2.059;1000;519;515
2.06;1000;519;519
2.061;1000;516;519
2.062;1000;513;520
2.063;1000;513;519
2.064;1000;510;520
2.065;1000;506;519
2.066;1000;506;521
2.067;1000;507;521
2.068;1000;509;520
2.069;1000;510;522
2.07;1000;512;522
2.071;1000;513;519
2.072;1000;514;524
2.073;1000;515;521
2.074;1000;516;517
2.075;1000;515;521
2.076;1000;514;520
2.077;1000;517;521
2.078;1000;519;520
2.079;1000;521;520
2.08;1000;519;520
2.081;1000;519;521
2.082;1000;518;522
2.083;1000;517;521
2.084;1000;518;521
2.085;1000;519;521
2.086;1000;520;520
2.087;1000;521;525
2.088;1000;522;521
2.089;1000;519;524
2.09;1000;518;522
2.091;1000;518;524
2.092;1000;519;523
2.093;1000;522;523
2.094;1000;521;519
2.095;1000;521;521
2.096;1000;521;523
2.097;1000;522;523
2.098;1000;522;522
2.099;1000;519;519
2.1;1000;518;522
2.101;1000;523;523
2.102;1000;524;524
2.103;1000;523;523
2.104;1000;521;522
2.105;1000;519;522
2.106;1000;513;525
2.107;1000;510;521
2.108;1000;512;525
2.109;1000;511;519
2.11;1000;511;521
2.111;1000;512;523
2.112;1000;510;522
2.113;1000;509;526
2.114;1000;509;521
2.115;1000;510;523
2.116;1000;510;525
2.117;1000;509;524
2.118;1000;509;523
2.119;1000;508;525
2.12;1000;505;522
2.121;1000;503;523
2.122;1000;500;524
2.123;1000;502;522
2.124;1000;504;518
2.125;1000;506;521
2.126;1000;505;523
2.127;1000;504;523
2.128;1000;503;521
2.129;1000;505;521
2.13;1000;507;521
2.131;1000;506;522
2.132;1000;504;522
2.133;1000;504;521
2.134;1000;505;523
2.135;1000;506;522
2.136;1000;504;519
2.137;1000;503;524
2.138;1000;503;522
2.139;1000;505;518
2.14;1000;507;520
2.141;1000;508;521
2.142;1000;509;521
2.143;1000;509;520
2.144;1000;505;520
2.145;1000;504;519
2.146;1000;503;518
2.147;1000;503;521
2.148;1000;504;520
2.149;1000;504;519
2.15;1000;503;521
2.151;1000;503;518
2.152;1000;505;522
2.153;1000;506;518
2.154;1000;505;516
2.155;1000;508;518
2.156;1000;511;519
2.157;1000;512;519
2.158;1000;510;518
2.159;1000;509;515
2.16;1000;506;517
2.161;1000;504;518
2.162;1000;505;518
2.163;1000;506;518
2.164;1000;508;517
2.165;1000;510;516
2.166;1000;507;517
2.167;1000;504;516
2.168;1000;507;520
2.169;1000;511;514
2.17;1000;512;520
2.171;1000;517;519
2.172;1000;521;516
2.173;1000;516;516
2.174;1000;505;513
2.175;1000;500;515
2.176;1000;499;517
2.177;1000;499;516
2.178;1000;499;516
2.179;1000;499;512
2.18;1000;503;515
2.181;1000;503;517
2.182;1000;503;515
2.183;1000;504;515
2.184;1000;502;518
2.185;1000;500;515
2.186;1000;501;516
2.187;1000;503;516
2.188;1000;505;515
2.189;1000;507;512
2.19;1000;508;515
2.191;1000;508;515
2.192;1000;507;515
2.193;1000;504;515
2.194;1000;499;514
2.195;1000;496;514
2.196;1000;494;515
2.197;1000;492;515
2.198;1000;489;515
2.199;1000;484;513
2.2;1000;481;513
2.201;1000;477;514
2.202;1000;473;513
2.203;1000;472;511
2.204;1000;473;511
2.205;1000;480;511
2.206;1000;487;512
2.207;1000;493;512
2.208;1000;503;512
2.209;1000;511;511
2.21;1000;523;511
2.211;1000;535;510
2.212;1000;547;514
2.213;1000;559;512
2.214;1000;571;511
2.215;1000;584;511
2.216;1000;595;512
2.217;1000;608;510
2.218;1000;623;509
2.219;1000;639;508
2.22;1000;654;508
2.221;1000;666;509
2.222;1000;677;509
2.223;1000;689;509
2.224;1000;699;509
2.225;1000;710;508
2.226;1000;720;507
2.227;1000;730;510
2.228;1000;740;510
2.229;1000;749;511
2.23;1000;755;510
2.231;1000;757;508
2.232;1000;756;512
2.233;1000;751;509
2.234;1000;742;511
2.235;1000;728;509
2.236;1000;707;508
2.237;1000;681;511
2.238;1000;654;512
2.239;1000;622;507
2.24;1000;588;510
2.241;1000;560;511
2.242;1000;537;511
2.243;1000;516;510
2.244;1000;498;510
2.245;1000;486;510
2.246;1000;473;511
2.247;1000;469;510
2.248;1000;466;513
2.249;1000;465;509
2.25;1000;465;511
2.251;1000;464;513
2.252;1000;463;511
2.253;1000;461;511
2.254;1000;459;508
2.255;1000;460;510
2.256;1000;460;512
2.257;1000;460;511
2.258;1000;460;511
2.259;1000;459;511
2.26;1000;458;510
2.261;1000;455;512
2.262;1000;453;510
2.263;1000;452;514
2.264;1000;454;508
2.265;1000;455;512
2.266;1000;454;514
2.267;1000;453;511
2.268;1000;454;511
2.269;1000;452;511
2.27;1000;451;511
2.271;1000;449;512
2.272;1000;450;512
2.273;1000;453;512
2.274;1000;459;509
2.275;1000;465;511
2.276;1000;472;513
2.277;1000;476;512
2.278;1000;476;512
2.279;1000;474;515
2.28;1000;473;512
2.281;1000;472;513
2.282;1000;472;514
2.283;1000;470;513
2.284;1000;468;509
2.285;1000;467;512
2.286;1000;468;513
2.287;1000;473;513
2.288;1000;477;513
2.289;1000;478;512
2.29;1000;478;512
2.291;1000;480;513
2.292;1000;481;513
2.293;1000;483;512
2.294;1000;490;515
2.295;1000;493;513
2.296;1000;489;511
2.297;1000;484;515
2.298;1000;483;513
2.299;1000;485;510
2.3;1000;483;512
2.301;1000;484;513
2.302;1000;484;513
2.303;1000;484;513
2.304;1000;484;509
2.305;1000;484;512
2.306;1000;482;511
2.307;1000;482;515
2.308;1000;487;515
2.309;1000;492;511
2.31;1000;492;516
2.311;1000;491;514
2.312;1000;491;514
2.313;1000;487;513
2.314;1000;483;510
2.315;1000;483;514
2.316;1000;485;513
2.317;1000;484;513
2.318;1000;484;513
2.319;1000;487;510
2.32;1000;488;512
2.321;1000;487;514
2.322;1000;487;513
2.323;1000;487;513
2.324;1000;487;509
2.325;1000;487;513
2.326;1000;490;515
2.327;1000;494;512
2.328;1000;499;515
2.329;1000;501;508
2.33;1000;501;512
2.331;1000;499;514
2.332;1000;496;513
2.333;1000;496;512
2.334;1000;494;509
2.335;1000;494;514
2.336;1000;499;513
2.337;1000;504;511
2.338;1000;506;512
2.339;1000;505;511
2.34;1000;505;514
2.341;1000;504;513
2.342;1000;503;512
2.343;1000;501;513
2.344;1000;499;510
2.345;1000;498;512
2.346;1000;498;511
2.347;1000;500;513
2.348;1000;500;513
2.349;1000;500;512
2.35;1000;502;512
2.351;1000;502;513
2.352;1000;501;514
2.353;1000;498;514
2.354;1000;495;513
2.355;1000;492;512
2.356;1000;490;512
2.357;1000;495;516
2.358;1000;500;514
2.359;1000;505;517
2.36;1000;509;514
2.361;1000;509;514
2.362;1000;509;514
2.363;1000;508;513
2.364;1000;506;510
2.365;1000;505;512
2.366;1000;505;514
2.367;1000;506;514
2.368;1000;510;513
2.369;1000;512;513
2.37;1000;512;512
2.371;1000;510;514
2.372;1000;510;514
2.373;1000;512;513
2.374;1000;513;515
2.375;1000;515;515
2.376;1000;515;512
2.377;1000;516;517
2.378;1000;515;513
2.379;1000;512;511
2.38;1000;510;513
2.381;1000;511;513
2.382;1000;512;514
2.383;1000;513;513
2.384;1000;515;510
2.385;1000;519;512
2.386;1000;520;513
2.387;1000;519;514
2.388;1000;518;514
2.389;1000;515;513
2.39;1000;515;513
2.391;1000;516;514
2.392;1000;516;512
2.393;1000;519;517
2.394;1000;524;511
2.395;1000;524;517
2.396;1000;523;515
2.397;1000;523;515
2.398;1000;523;515
2.399;1000;523;511
2.4;1000;523;514
2.401;1000;524;515
2.402;1000;525;513
2.403;1000;525;518
2.404;1000;528;512
2.405;1000;529;515
2.406;1000;528;513
2.407;1000;527;517
2.408;1000;527;516
2.409;1000;529;515
2.41;1000;532;515
2.411;1000;535;516
2.412;1000;537;516
2.413;1000;536;515
2.414;1000;534;512
2.415;1000;532;514
2.416;1000;531;516
2.417;1000;536;516
2.418;1000;540;515
2.419;1000;542;514
2.42;1000;545;515
2.421;1000;548;516
2.422;1000;550;513
2.423;1000;548;519
2.424;1000;547;512
2.425;1000;547;514
2.426;1000;550;517
2.427;1000;553;516
2.428;1000;553;515
2.429;1000;554;512
2.43;1000;555;514
2.431;1000;553;515
2.432;1000;553;515
2.433;1000;553;515
2.434;1000;554;515
2.435;1000;555;515
2.436;1000;555;516
2.437;1000;556;515
2.438;1000;560;518
2.439;1000;559;513
2.44;1000;558;518
2.441;1000;555;519
2.442;1000;555;515
2.443;1000;554;518
2.444;1000;557;513
2.445;1000;558;515
2.446;1000;559;517
2.447;1000;563;517
2.448;1000;566;516
2.449;1000;568;516
2.45;1000;568;515
2.451;1000;568;517
2.452;1000;570;518
2.453;1000;571;518
2.454;1000;570;517
2.455;1000;569;517
2.456;1000;567;516
2.457;1000;564;521
2.458;1000;564;518
2.459;1000;564;521
2.46;1000;565;519
2.461;1000;563;520
2.462;1000;561;520
2.463;1000;561;521
2.464;1000;560;519
2.465;1000;558;521
2.466;1000;558;520
2.467;1000;558;524
2.468;1000;559;524
2.469;1000;561;520
2.47;1000;559;526
2.471;1000;556;525
2.472;1000;556;525
2.473;1000;552;525
2.474;1000;549;522
2.475;1000;548;525
2.476;1000;547;525
2.477;1000;548;526
2.478;1000;551;526
2.479;1000;551;523
2.48;1000;548;526
2.481;1000;543;527
2.482;1000;538;528
2.483;1000;539;528
2.484;1000;540;525
2.485;1000;540;528
2.486;1000;540;532
2.487;1000;539;528
2.488;1000;537;531
2.489;1000;532;526
2.49;1000;530;529
2.491;1000;531;532
2.492;1000;529;531
2.493;1000;525;531
2.494;1000;523;528
2.495;1000;521;531
2.496;1000;518;533
2.497;1000;514;533
2.498;1000;509;534
2.499;1000;507;533
2.5;1000;505;534
2.501;1000;499;535
2.502;1000;496;535
2.503;1000;495;538
2.504;1000;492;533
2.505;1000;487;537
2.506;1000;485;540
2.507;1000;482;538
2.508;1000;477;538
2.509;1000;475;536
2.51;1000;474;540
2.511;1000;475;540
2.512;1000;477;540
2.513;1000;480;540
2.514;1000;480;537
2.515;1000;478;539
2.516;1000;477;542
2.517;1000;477;541
2.518;1000;475;542
2.519;1000;473;539
2.52;1000;472;542
2.521;1000;472;542
2.522;1000;470;547
2.523;1000;468;544
2.524;1000;466;540
2.525;1000;465;543
2.526;1000;466;544
2.527;1000;464;544
2.528;1000;463;545
2.529;1000;467;545
2.53;1000;466;545
2.531;1000;464;544
2.532;1000;463;548
2.533;1000;463;546
2.534;1000;464;548
2.535;1000;465;547
2.536;1000;464;548
2.537;1000;464;547
2.538;1000;463;546
2.539;1000;463;543
2.54;1000;463;546
2.541;1000;461;547
2.542;1000;462;547
2.543;1000;464;548
2.544;1000;464;543
2.545;1000;463;546
2.546;1000;463;547
2.547;1000;463;548
2.548;1000;461;547
2.549;1000;462;544
2.55;1000;463;546
2.551;1000;464;550
2.552;1000;465;545
2.553;1000;467;548
2.554;1000;467;545
2.555;1000;471;545
2.556;1000;472;545
2.557;1000;470;546
2.558;1000;470;546
2.559;1000;469;542
2.56;1000;469;544
2.561;1000;468;545
2.562;1000;467;544
2.563;1000;463;547
2.564;1000;462;542
2.565;1000;462;544
2.566;1000;464;543
2.567;1000;467;545
2.568;1000;468;545
2.569;1000;467;541
2.57;1000;467;544
2.571;1000;467;545
2.572;1000;467;542
2.573;1000;469;542
2.574;1000;471;541
2.575;1000;471;540
2.576;1000;473;541
2.577;1000;476;541
2.578;1000;478;540
2.579;1000;478;540
2.58;1000;478;539
2.581;1000;477;537
2.582;1000;475;542
2.583;1000;474;537
2.584;1000;471;540
2.585;1000;468;537
2.586;1000;467;537
2.587;1000;468;537
2.588;1000;471;536
2.589;1000;475;532
2.59;1000;480;534
2.591;1000;486;535
2.592;1000;490;535
2.593;1000;490;534
2.594;1000;488;532
2.595;1000;485;532
2.596;1000;481;532
2.597;1000;477;533
2.598;1000;476;531
2.599;1000;476;532
2.6;1000;476;531
2.601;1000;477;528
2.602;1000;481;532
2.603;1000;484;529
2.604;1000;481;527
2.605;1000;479;527
2.606;1000;480;528
2.607;1000;481;527
2.608;1000;481;526
2.609;1000;481;523
2.61;1000;483;525
2.611;1000;485;525
2.612;1000;483;525
2.613;1000;479;524
2.614;1000;480;520
2.615;1000;481;522
2.616;1000;485;524
2.617;1000;488;522
2.618;1000;489;525
2.619;1000;488;518
2.62;1000;487;520
2.621;1000;484;521
2.622;1000;482;521
2.623;1000;482;519
2.624;1000;483;516
2.625;1000;483;518
2.626;1000;483;519
2.627;1000;485;517
2.628;1000;486;520
2.629;1000;485;515
2.63;1000;486;520
2.631;1000;486;520
2.632;1000;484;515
2.633;1000;482;517
2.634;1000;484;512
2.635;1000;487;514
2.636;1000;489;515
2.637;1000;489;515
2.638;1000;488;514
2.639;1000;487;513
2.64;1000;488;513
2.641;1000;486;513
2.642;1000;483;513
2.643;1000;481;513
2.644;1000;480;511
2.645;1000;478;511
2.646;1000;477;510
2.647;1000;477;514
2.648;1000;478;510
2.649;1000;477;512
2.65;1000;477;510
2.651;1000;479;510
2.652;1000;479;510
2.653;1000;478;509
2.654;1000;475;505
2.655;1000;474;508
2.656;1000;474;509
2.657;1000;477;509
2.658;1000;481;508
2.659;1000;486;507
2.66;1000;489;507
2.661;1000;492;509
2.662;1000;493;506
2.663;1000;492;509
2.664;1000;493;504
2.665;1000;493;506
2.666;1000;494;509
2.667;1000;494;508
2.668;1000;494;506
2.669;1000;495;503
2.67;1000;496;505
2.671;1000;495;506
2.672;1000;491;507
2.673;1000;490;507
2.674;1000;489;505
2.675;1000;492;504
2.676;1000;496;506
2.677;1000;496;504
2.678;1000;495;508
2.679;1000;495;503
2.68;1000;493;507
2.681;1000;492;508
2.682;1000;492;504
2.683;1000;492;504
2.684;1000;494;502
2.685;1000;495;504
2.686;1000;495;505
2.687;1000;494;505
2.688;1000;493;505
2.689;1000;496;501
2.69;1000;496;504
2.691;1000;493;505
2.692;1000;493;505
2.693;1000;497;505
2.694;1000;497;507
2.695;1000;495;505
2.696;1000;492;506
2.697;1000;491;505
2.698;1000;492;505
2.699;1000;490;502
2.7;1000;487;504
2.701;1000;486;505
2.702;1000;492;505
2.703;1000;495;505
2.704;1000;495;502
2.705;1000;496;504
2.706;1000;497;506
2.707;1000;497;506
2.708;1000;498;506
2.709;1000;500;502
2.71;1000;501;505
2.711;1000;500;510
2.712;1000;503;504
2.713;1000;505;509
2.714;1000;505;503
2.715;1000;504;505
2.716;1000;499;507
2.717;1000;496;508
2.718;1000;495;508
2.719;1000;496;504
2.72;1000;497;506
2.721;1000;501;508
2.722;1000;502;506
2.723;1000;502;511
2.724;1000;500;505
2.725;1000;499;508
2.726;1000;498;507
2.727;1000;499;509
2.728;1000;499;510
2.729;1000;499;506
2.73;1000;500;509
2.731;1000;500;510
2.732;1000;499;508
2.733;1000;498;508
2.734;1000;497;508
2.735;1000;496;508
2.736;1000;495;509
2.737;1000;494;510
2.738;1000;494;509
2.739;1000;492;508
2.74;1000;491;508
2.741;1000;494;510
2.742;1000;494;511
2.743;1000;498;510
2.744;1000;503;508
2.745;1000;504;508
2.746;1000;507;507
2.747;1000;507;511
2.748;1000;506;509
2.749;1000;505;512
2.75;1000;504;510
2.751;1000;507;511
2.752;1000;511;510
2.753;1000;511;514
2.754;1000;512;509
2.755;1000;511;511
2.756;1000;509;514
2.757;1000;508;512
2.758;1000;509;513
2.759;1000;513;511
2.76;1000;513;512
2.761;1000;511;513
2.762;1000;511;512
2.763;1000;509;510
2.764;1000;508;513
2.765;1000;505;511
2.766;1000;504;512
2.767;1000;505;513
2.768;1000;506;512
2.769;1000;508;514
2.77;1000;508;512
2.771;1000;509;512
2.772;1000;511;516
2.773;1000;512;515
2.774;1000;511;512
2.775;1000;508;516
2.776;1000;508;518
2.777;1000;514;514
2.778;1000;517;516
2.779;1000;514;512
2.78;1000;514;514
2.781;1000;514;516
2.782;1000;512;516
2.783;1000;510;516
2.784;1000;509;512
2.785;1000;507;515
2.786;1000;506;516
2.787;1000;507;517
2.788;1000;510;517
2.789;1000;510;513
2.79;1000;508;516
2.791;1000;507;520
2.792;1000;504;516
2.793;1000;506;520
2.794;1000;509;516
2.795;1000;511;518
2.796;1000;511;518
2.797;1000;512;517
2.798;1000;512;517
2.799;1000;509;513
2.8;1000;507;516
2.801;1000;505;518
2.802;1000;503;518
2.803;1000;503;518
2.804;1000;502;515
2.805;1000;503;517
2.806;1000;507;520
2.807;1000;511;519
2.808;1000;513;519
2.809;1000;520;521
2.81;1000;523;519
2.811;1000;522;519
2.812;1000;521;519
2.813;1000;520;519
2.814;1000;521;516
2.815;1000;521;519
2.816;1000;519;520
2.817;1000;515;520
2.818;1000;510;520
2.819;1000;505;519
2.82;1000;505;519
2.821;1000;507;521
2.822;1000;511;519
2.823;1000;515;523
2.824;1000;519;520
2.825;1000;522;520
2.826;1000;524;523
2.827;1000;525;520
2.828;1000;524;521
2.829;1000;525;517
2.83;1000;526;520
2.831;1000;525;521
2.832;1000;525;521
2.833;1000;523;521
2.834;1000;522;517
2.835;1000;524;519
2.836;1000;524;522
2.837;1000;525;521
2.838;1000;524;522
2.839;1000;523;520
2.84;1000;522;520
2.841;1000;515;521
2.842;1000;509;520
2.843;1000;508;519
2.844;1000;512;518
2.845;1000;517;518
2.846;1000;519;520
2.847;1000;523;519
2.848;1000;527;520
2.849;1000;531;519
2.85;1000;533;519
2.851;1000;530;520
2.852;1000;528;520
2.853;1000;528;520
2.854;1000;528;519
2.855;1000;527;519
2.856;1000;524;521
2.857;1000;521;519
2.858;1000;521;518
2.859;1000;522;516
2.86;1000;519;516
2.861;1000;517;518
2.862;1000;514;519
2.863;1000;512;518
2.864;1000;511;516
2.865;1000;511;517
2.866;1000;508;519
2.867;1000;507;519
2.868;1000;503;518
2.869;1000;503;520
2.87;1000;506;518
2.871;1000;508;516
2.872;1000;510;521
2.873;1000;513;516
2.874;1000;512;519
2.875;1000;510;517
2.876;1000;505;515
2.877;1000;500;519
2.878;1000;499;517
2.879;1000;502;519
2.88;1000;504;517
2.881;1000;506;518
2.882;1000;511;516
2.883;1000;511;520
2.884;1000;511;515
2.885;1000;510;518
2.886;1000;507;519
2.887;1000;506;518
2.888;1000;506;517
2.889;1000;505;519
2.89;1000;507;517
2.891;1000;508;518
2.892;1000;509;518
2.893;1000;509;518
2.894;1000;509;514
2.895;1000;507;516
2.896;1000;508;517
2.897;1000;510;517
2.898;1000;509;517
2.899;1000;508;515
2.9;1000;511;516
2.901;1000;514;517
2.902;1000;513;515
2.903;1000;512;520
2.904;1000;512;513
2.905;1000;512;515
2.906;1000;513;518
2.907;1000;513;517
2.908;1000;510;516
2.909;1000;509;512
2.91;1000;510;515
2.911;1000;511;515
2.912;1000;510;516
2.913;1000;509;516
2.914;1000;508;514
2.915;1000;509;515
2.916;1000;509;515
2.917;1000;508;513
2.918;1000;506;517
2.919;1000;505;511
2.92;1000;501;517
2.921;1000;503;518
2.922;1000;504;513
2.923;1000;504;515
2.924;1000;504;511
2.925;1000;503;513
2.926;1000;500;513
2.927;1000;500;514
2.928;1000;503;514
2.929;1000;507;512
2.93;1000;510;512
2.931;1000;512;514
2.932;1000;514;514
2.933;1000;515;514
2.934;1000;514;512
2.935;1000;512;512
2.936;1000;510;513
2.937;1000;510;511
2.938;1000;510;515
2.939;1000;512;509
2.94;1000;512;514
2.941;1000;511;514
2.942;1000;507;514
2.943;1000;501;514
2.944;1000;496;510
2.945;1000;495;512
2.946;1000;498;511
2.947;1000;502;515
2.948;1000;505;514
2.949;1000;504;511
2.95;1000;503;516
2.951;1000;499;514
2.952;1000;495;513
2.953;1000;491;513
2.954;1000;490;509
2.955;1000;487;513
2.956;1000;483;512
2.957;1000;480;512
2.958;1000;480;512
2.959;1000;483;508
2.96;1000;484;510
2.961;1000;484;511
2.962;1000;487;511
2.963;1000;492;511
2.964;1000;494;507
2.965;1000;496;510
2.966;1000;506;514
2.967;1000;517;509
2.968;1000;528;513
2.969;1000;539;506
2.97;1000;551;510
2.971;1000;567;511
2.972;1000;582;510
2.973;1000;597;510
2.974;1000;611;506
2.975;1000;626;508
2.976;1000;639;510
2.977;1000;653;509
2.978;1000;668;510
2.979;1000;681;509
2.98;1000;694;508
2.981;1000;706;510
2.982;1000;716;508
2.983;1000;724;512
2.984;1000;736;506
2.985;1000;750;511
2.986;1000;763;512
2.987;1000;775;508
2.988;1000;783;510
2.989;1000;788;506
2.99;1000;790;508
2.991;1000;784;509
2.992;1000;766;509
2.993;1000;741;509
2.994;1000;713;508
2.995;1000;684;508
2.996;1000;656;507
2.997;1000;627;511
2.998;1000;597;511
2.999;1000;574;506
3;1000;553;509
3.001;1000;534;510
3.002;1000;516;508
3.003;1000;505;511
3.004;1000;495;507
3.005;1000;487;510
3.006;1000;481;511
3.007;1000;476;511
3.008;1000;471;510
3.009;1000;466;507
3.01;1000;463;509
3.011;1000;461;512
3.012;1000;460;511
3.013;1000;457;511
3.014;1000;455;508
3.015;1000;454;513
3.016;1000;456;511
3.017;1000;456;511
3.018;1000;454;512
3.019;1000;451;508
3.02;1000;449;510
3.021;1000;448;511
3.022;1000;447;511
3.023;1000;448;511
3.024;1000;448;508
3.025;1000;447;510
3.026;1000;448;511
3.027;1000;450;512
3.028;1000;455;512
3.029;1000;457;508
3.03;1000;460;510
3.031;1000;460;515
3.032;1000;460;510
3.033;1000;459;513
3.034;1000;462;508
3.035;1000;464;511
3.036;1000;467;512
3.037;1000;467;512
3.038;1000;467;512
3.039;1000;466;511
3.04;1000;467;511
3.041;1000;465;513
3.042;1000;463;510
3.043;1000;462;514
3.044;1000;464;510
3.045;1000;466;512
3.046;1000;469;511
3.047;1000;473;513
3.048;1000;477;514
3.049;1000;476;510
3.05;1000;476;513
3.051;1000;474;514
3.052;1000;473;512
3.053;1000;473;512
3.054;1000;475;511
3.055;1000;477;511
3.056;1000;479;512
3.057;1000;477;513
3.058;1000;476;512
3.059;1000;475;512
3.06;1000;473;512
3.061;1000;476;511
3.062;1000;480;515
3.063;1000;482;512
3.064;1000;482;515
3.065;1000;484;513
3.066;1000;485;513
3.067;1000;487;513
3.068;1000;488;513
3.069;1000;489;509
3.07;1000;491;512
3.071;1000;491;513
3.072;1000;490;513
3.073;1000;487;513
3.074;1000;486;512
3.075;1000;485;512
3.076;1000;484;514
3.077;1000;483;514
3.078;1000;484;512
3.079;1000;485;514
3.08;1000;489;514
3.081;1000;488;511
3.082;1000;489;516
3.083;1000;493;513
3.084;1000;497;511
3.085;1000;499;512
3.086;1000;499;513
3.087;1000;502;513
3.088;1000;500;513
3.089;1000;497;510
3.09;1000;495;512
3.091;1000;493;513
3.092;1000;493;512
3.093;1000;495;515
3.094;1000;497;511
3.095;1000;496;513
3.096;1000;496;512
3.097;1000;498;516
3.098;1000;499;514
3.099;1000;501;511
3.1;1000;501;512
3.101;1000;500;514
3.102;1000;500;514
3.103;1000;502;514
3.104;1000;505;513
3.105;1000;508;513
3.106;1000;508;512
3.107;1000;507;515
3.108;1000;504;516
3.109;1000;502;512
3.11;1000;500;517
3.111;1000;499;515
3.112;1000;500;515
3.113;1000;503;515
3.114;1000;504;512
3.115;1000;504;515
3.116;1000;507;514
3.117;1000;509;514
3.118;1000;508;514
3.119;1000;508;511
3.12;1000;508;513
3.121;1000;507;515
3.122;1000;501;515
3.123;1000;495;515
3.124;1000;495;511
3.125;1000;496;513
3.126;1000;496;518
3.127;1000;497;513
3.128;1000;500;516
3.129;1000;503;510
3.13;1000;506;513
3.131;1000;507;515
3.132;1000;508;513
3.133;1000;509;513
3.134;1000;511;510
3.135;1000;510;512
3.136;1000;511;513
3.137;1000;513;513
3.138;1000;517;514
3.139;1000;518;512
3.14;1000;516;512
3.141;1000;516;513
3.142;1000;515;512
3.143;1000;512;516
3.144;1000;512;510
3.145;1000;512;515
3.146;1000;514;517
3.147;1000;518;515
3.148;1000;521;514
3.149;1000;520;511
3.15;1000;519;515
3.151;1000;520;515
3.152;1000;519;514
3.153;1000;523;514
3.154;1000;527;513
3.155;1000;529;513
3.156;1000;529;512
3.157;1000;529;516
3.158;1000;527;515
3.159;1000;525;511
3.16;1000;524;517
3.161;1000;523;517
3.162;1000;520;513
3.163;1000;522;514
3.164;1000;525;511
3.165;1000;526;513
3.166;1000;525;515
3.167;1000;529;515
3.168;1000;534;514
3.169;1000;536;513
3.17;1000;537;513
3.171;1000;537;515
3.172;1000;538;513
3.173;1000;541;517
3.174;1000;545;512
3.175;1000;547;517
3.176;1000;547;517
3.177;1000;542;513
3.178;1000;541;515
3.179;1000;540;511
3.18;1000;541;513
3.181;1000;542;515
3.182;1000;542;515
3.183;1000;547;515
3.184;1000;546;514
3.185;1000;544;514
3.186;1000;543;515
3.187;1000;544;515
3.188;1000;545;515
3.189;1000;549;515
3.19;1000;553;515
3.191;1000;555;513
3.192;1000;556;519
3.193;1000;558;515
3.194;1000;559;518
3.195;1000;559;516
3.196;1000;559;516
3.197;1000;557;516
3.198;1000;556;516
3.199;1000;554;513
3.2;1000;553;515
3.201;1000;551;517
3.202;1000;556;517
3.203;1000;560;516
3.204;1000;560;515
3.205;1000;561;517
3.206;1000;562;519
3.207;1000;564;517
3.208;1000;567;520
3.209;1000;568;516
3.21;1000;568;518
3.211;1000;571;521
3.212;1000;573;519
3.213;1000;569;519
3.214;1000;571;516
3.215;1000;572;519
3.216;1000;570;520
3.217;1000;566;521
3.218;1000;560;521
3.219;1000;555;520
3.22;1000;552;520
3.221;1000;550;522
3.222;1000;550;521
3.223;1000;550;525
3.224;1000;553;519
3.225;1000;555;524
3.226;1000;556;527
3.227;1000;556;523
3.228;1000;556;525
3.229;1000;557;524
3.23;1000;558;525
3.231;1000;558;526
3.232;1000;556;526
3.233;1000;554;526
3.234;1000;553;523
3.235;1000;551;526
3.236;1000;551;527
3.237;1000;548;528
3.238;1000;544;527
3.239;1000;543;529
3.24;1000;543;529
3.241;1000;538;528
3.242;1000;531;533
3.243;1000;527;530
3.244;1000;528;529
3.245;1000;531;531
3.246;1000;530;532
3.247;1000;527;532
3.248;1000;526;533
3.249;1000;524;530
3.25;1000;521;533
3.251;1000;516;534
3.252;1000;512;536
3.253;1000;508;536
3.254;1000;508;532
3.255;1000;506;535
3.256;1000;503;538
3.257;1000;502;536
3.258;1000;502;541
3.259;1000;501;535
3.26;1000;499;538
3.261;1000;495;540
3.262;1000;491;541
3.263;1000;484;540
3.264;1000;481;537
3.265;1000;483;541
3.266;1000;487;542
3.267;1000;486;541
3.268;1000;487;545
3.269;1000;492;541
3.27;1000;489;546
3.271;1000;483;547
3.272;1000;482;543
3.273;1000;480;546
3.274;1000;477;542
3.275;1000;476;544
3.276;1000;477;546
3.277;1000;477;546
3.278;1000;475;547
3.279;1000;472;546
3.28;1000;471;546
3.281;1000;470;547
3.282;1000;471;548
3.283;1000;471;548
3.284;1000;470;547
3.285;1000;466;547
3.286;1000;465;547
3.287;1000;467;552
3.288;1000;470;548
3.289;1000;471;551
3.29;1000;470;549
3.291;1000;470;550
3.292;1000;471;550
3.293;1000;470;550
3.294;1000;466;546
3.295;1000;467;549
3.296;1000;467;550
3.297;1000;465;551
3.298;1000;464;549
3.299;1000;462;548
3.3;1000;460;550
3.301;1000;459;551
3.302;1000;459;549
3.303;1000;459;552
3.304;1000;459;547
3.305;1000;457;550
3.306;1000;457;552
3.307;1000;460;550
3.308;1000;459;550
3.309;1000;457;546
3.31;1000;456;548
3.311;1000;461;549
3.312;1000;465;549
3.313;1000;467;549
3.314;1000;468;547
3.315;1000;468;547
3.316;1000;468;548
3.317;1000;468;547
3.318;1000;467;550
3.319;1000;464;544
3.32;1000;462;550
3.321;1000;463;549
3.322;1000;464;546
3.323;1000;465;546
3.324;1000;467;543
3.325;1000;469;545
3.326;1000;471;545
3.327;1000;472;545
3.328;1000;474;545
3.329;1000;473;541
3.33;1000;471;542
3.331;1000;468;545
3.332;1000;467;544
3.333;1000;467;543
3.334;1000;467;544
3.335;1000;468;542
3.336;1000;470;542
3.337;1000;470;541
3.338;1000;470;541
3.339;1000;470;536
3.34;1000;468;539
3.341;1000;465;539
3.342;1000;462;539
3.343;1000;462;538
3.344;1000;463;536
3.345;1000;468;536
3.346;1000;470;536
3.347;1000;469;536
3.348;1000;473;535
3.349;1000;478;537
3.35;1000;478;535
3.351;1000;476;531
3.352;1000;472;536
3.353;1000;472;533
3.354;1000;475;530
3.355;1000;476;530
3.356;1000;476;530
3.357;1000;477;529
3.358;1000;479;528
3.359;1000;478;527
3.36;1000;473;526
3.361;1000;471;527
3.362;1000;472;526
3.363;1000;473;525
3.364;1000;472;524
3.365;1000;469;524
3.366;1000;467;523
3.367;1000;468;526
3.368;1000;476;523
3.369;1000;477;521
3.37;1000;477;522
3.371;1000;478;522
3.372;1000;477;522
3.373;1000;475;520
3.374;1000;475;518
3.375;1000;481;519
3.376;1000;485;519
3.377;1000;481;518
3.378;1000;480;519
3.379;1000;478;517
3.38;1000;474;516
3.381;1000;470;518
3.382;1000;467;515
3.383;1000;466;519
3.384;1000;468;513
3.385;1000;471;517
3.386;1000;475;518
3.387;1000;476;514
3.388;1000;475;514
3.389;1000;475;511
3.39;1000;477;513
3.391;1000;478;513
3.392;1000;477;513
3.393;1000;479;513
3.394;1000;481;509
3.395;1000;481;511
3.396;1000;479;513
3.397;1000;479;512
3.398;1000;478;512
3.399;1000;479;513
3.4;1000;480;511
3.401;1000;481;513
3.402;1000;479;511
3.403;1000;479;511
3.404;1000;482;507
3.405;1000;484;509
3.406;1000;484;510
3.407;1000;485;510
3.408;1000;487;510
3.409;1000;489;508
3.41;1000;489;507
3.411;1000;487;509
3.412;1000;485;508
3.413;1000;483;507
3.414;1000;482;510
3.415;1000;482;508
3.416;1000;481;505
3.417;1000;482;510
3.418;1000;486;507
3.419;1000;488;504
3.42;1000;487;505
3.421;1000;485;507
3.422;1000;483;507
3.423;1000;480;506
3.424;1000;479;504
3.425;1000;480;504
3.426;1000;479;503
3.427;1000;481;507
3.428;1000;484;506
3.429;1000;487;504
3.43;1000;487;505
3.431;1000;484;505
3.432;1000;484;502
3.433;1000;487;506
3.434;1000;490;502
3.435;1000;492;503
3.436;1000;490;505
3.437;1000;488;504
3.438;1000;489;505
3.439;1000;489;501
3.44;1000;485;503
3.441;1000;483;504
3.442;1000;481;502
3.443;1000;483;507
3.444;1000;490;501
3.445;1000;494;504
3.446;1000;490;504
3.447;1000;486;503
3.448;1000;484;506
3.449;1000;483;500
3.45;1000;484;503
3.451;1000;484;505
3.452;1000;484;505
3.453;1000;486;504
3.454;1000;487;503
3.455;1000;491;504
3.456;1000;494;505
3.457;1000;495;504
3.458;1000;495;505
3.459;1000;494;501
3.46;1000;492;503
3.461;1000;490;506
3.462;1000;491;504
3.463;1000;494;507
3.464;1000;496;502
3.465;1000;496;505
3.466;1000;500;505
3.467;1000;503;505
3.468;1000;503;505
3.469;1000;502;502
3.47;1000;500;505
3.471;1000;499;506
3.472;1000;497;505
3.473;1000;496;506
3.474;1000;497;504
3.475;1000;497;504
3.476;1000;498;506
3.477;1000;501;507
3.478;1000;504;507
3.479;1000;508;505
3.48;1000;508;506
3.481;1000;504;508
3.482;1000;503;506
3.483;1000;502;506
3.484;1000;500;505
3.485;1000;500;505
3.486;1000;500;507
3.487;1000;501;507
3.488;1000;503;507
3.489;1000;503;504
3.49;1000;502;507
3.491;1000;502;509
3.492;1000;504;509
3.493;1000;505;510
3.494;1000;507;508
3.495;1000;510;508
3.496;1000;510;510
3.497;1000;509;508
3.498;1000;508;508
3.499;1000;506;505
3.5;1000;504;506
3.501;1000;502;508
3.502;1000;502;509
3.503;1000;502;509
3.504;1000;503;508
3.505;1000;504;508
3.506;1000;505;510
3.507;1000;505;510
3.508;1000;506;511
3.509;1000;506;510
3.51;1000;509;511
3.511;1000;510;512
3.512;1000;511;508
3.513;1000;512;512
3.514;1000;509;507
3.515;1000;504;510
3.516;1000;501;512
3.517;1000;502;510
3.518;1000;505;514
3.519;1000;508;510
3.52;1000;508;512
3.521;1000;507;514
3.522;1000;503;513
3.523;1000;503;517
3.524;1000;505;512
3.525;1000;506;514
3.526;1000;505;517
3.527;1000;505;515
3.528;1000;510;519
3.529;1000;513;514
3.53;1000;512;518
3.531;1000;511;517
3.532;1000;510;517
3.533;1000;511;518
3.534;1000;513;514
3.535;1000;513;516
3.536;1000;511;518
3.537;1000;511;519
3.538;1000;511;518
3.539;1000;511;517
3.54;1000;510;517
3.541;1000;510;518
3.542;1000;511;519
3.543;1000;511;518
3.544;1000;510;519
3.545;1000;510;519
3.546;1000;509;518
3.547;1000;508;522
3.548;1000;509;520
3.549;1000;512;516
3.55;1000;515;519
3.551;1000;517;520
3.552;1000;519;520
3.553;1000;519;520
3.554;1000;519;519
3.555;1000;523;519
3.556;1000;522;519
3.557;1000;516;523
3.558;1000;514;521
3.559;1000;515;520
3.56;1000;515;523
3.561;1000;512;521
3.562;1000;511;522
3.563;1000;510;522
3.564;1000;510;520
3.565;1000;512;520
3.566;1000;512;522
3.567;1000;514;522
3.568;1000;517;522
3.569;1000;519;521
3.57;1000;519;521
3.571;1000;515;520
3.572;1000;511;524
3.573;1000;509;523
3.574;1000;505;524
3.575;1000;506;523
3.576;1000;508;523
3.577;1000;511;523
3.578;1000;512;522
3.579;1000;511;520
3.58;1000;515;520
3.581;1000;521;521
3.582;1000;524;522
3.583;1000;524;522
3.584;1000;521;521
3.585;1000;518;521
3.586;1000;515;522
3.587;1000;515;520
3.588;1000;514;524
3.589;1000;515;520
3.59;1000;516;524
3.591;1000;517;525
3.592;1000;516;520
3.593;1000;516;523
3.594;1000;519;519
3.595;1000;521;521
3.596;1000;519;522
3.597;1000;517;521
3.598;1000;516;521
3.599;1000;517;520
3.6;1000;517;520
3.601;1000;520;521
3.602;1000;520;521
3.603;1000;520;521
3.604;1000;521;520
3.605;1000;520;519
3.606;1000;518;519
3.607;1000;514;524
3.608;1000;513;520
3.609;1000;515;523
3.61;1000;515;521
3.611;1000;515;521
3.612;1000;512;520
3.613;1000;507;521
3.614;1000;505;518
3.615;1000;507;519
3.616;1000;509;520
3.617;1000;510;521
3.618;1000;510;519
3.619;1000;510;519
3.62;1000;508;519
3.621;1000;506;520
3.622;1000;505;519
3.623;1000;507;522
3.624;1000;509;516
3.625;1000;510;519
3.626;1000;511;521
3.627;1000;511;519
3.628;1000;512;519
3.629;1000;513;516
3.63;1000;512;517
3.631;1000;512;518
3.632;1000;513;518
3.633;1000;513;518
3.634;1000;515;516
3.635;1000;516;517
3.636;1000;517;518
3.637;1000;517;518
3.638;1000;516;519
3.639;1000;519;515
3.64;1000;519;516
3.641;1000;519;517
3.642;1000;519;516
3.643;1000;517;514
3.644;1000;512;511
3.645;1000;510;512
3.646;1000;510;515
3.647;1000;512;513
3.648;1000;514;516
3.649;1000;519;511
3.65;1000;521;513
3.651;1000;521;515
3.652;1000;523;514
3.653;1000;524;514
3.654;1000;524;516
3.655;1000;524;513
3.656;1000;523;515
3.657;1000;521;515
3.658;1000;519;513
3.659;1000;518;509
3.66;1000;517;512
3.661;1000;518;512
3.662;1000;519;513
3.663;1000;521;513
3.664;1000;521;511
3.665;1000;521;511
3.666;1000;519;512
3.667;1000;523;512
3.668;1000;524;511
3.669;1000;524;513
3.67;1000;523;512
3.671;1000;524;513
3.672;1000;527;511
3.673;1000;528;509
3.674;1000;525;511
3.675;1000;519;509
3.676;1000;513;510
3.677;1000;513;510
3.678;1000;515;510
3.679;1000;517;506
3.68;1000;515;508
3.681;1000;509;509
3.682;1000;505;510
3.683;1000;502;508
3.684;1000;500;508
3.685;1000;501;508
3.686;1000;504;510
3.687;1000;504;508
3.688;1000;504;511
3.689;1000;507;507
3.69;1000;505;509
3.691;1000;504;511
3.692;1000;506;509
3.693;1000;507;509
3.694;1000;507;506
3.695;1000;505;508
3.696;1000;501;509
3.697;1000;499;509
3.698;1000;502;510
3.699;1000;505;508
3.7;1000;507;508
3.701;1000;505;509
3.702;1000;502;508
3.703;1000;504;511
3.704;1000;506;506
3.705;1000;506;510
3.706;1000;503;512
3.707;1000;504;508
3.708;1000;506;509
3.709;1000;510;506
3.71;1000;509;508
3.711;1000;508;509
3.712;1000;508;509
3.713;1000;510;510
3.714;1000;510;505
3.715;1000;511;508
3.716;1000;512;510
3.717;1000;514;509
3.718;1000;515;509
3.719;1000;513;511
3.72;1000;513;509
3.721;1000;511;510
3.722;1000;507;510
3.723;1000;505;510
3.724;1000;504;506
3.725;1000;505;508
3.726;1000;504;509
3.727;1000;502;510
3.728;1000;504;510
3.729;1000;505;508
3.73;1000;504;508
3.731;1000;503;510
3.732;1000;502;510
3.733;1000;504;509
3.734;1000;509;512
3.735;1000;511;510
3.736;1000;510;508
3.737;1000;509;513
3.738;1000;512;510
3.739;1000;514;507
3.74;1000;514;509
3.741;1000;512;510
3.742;1000;512;510
3.743;1000;511;510
3.744;1000;511;509
3.745;1000;513;508
3.746;1000;512;508
3.747;1000;513;512
3.748;1000;514;511
3.749;1000;515;509
3.75;1000;517;513
3.751;1000;515;511
3.752;1000;515;513
3.753;1000;518;512
3.754;1000;518;509
3.755;1000;511;512
3.756;1000;505;511
3.757;1000;506;511
3.758;1000;505;511
3.759;1000;505;508
3.76;1000;507;510
3.761;1000;504;511
3.762;1000;504;511
3.763;1000;505;512
3.764;1000;507;508
3.765;1000;508;510
3.766;1000;509;513
3.767;1000;509;510
3.768;1000;507;513
3.769;1000;504;508
3.77;1000;500;511
3.771;1000;497;513
3.772;1000;496;511
3.773;1000;496;512
3.774;1000;493;508
3.775;1000;489;511
3.776;1000;487;511
3.777;1000;483;512
3.778;1000;484;512
3.779;1000;487;509
3.78;1000;492;511
3.781;1000;495;514
3.782;1000;499;512
3.783;1000;504;515
3.784;1000;515;511
3.785;1000;529;513
3.786;1000;538;514
3.787;1000;545;511
3.788;1000;553;513
3.789;1000;568;509
3.79;1000;586;511
3.791;1000;603;512
3.792;1000;619;513
3.793;1000;634;513
3.794;1000;650;512
3.795;1000;664;511
3.796;1000;679;510
3.797;1000;692;515
3.798;1000;706;514
3.799;1000;722;510
3.8;1000;736;515
3.801;1000;744;516
3.802;1000;749;514
3.803;1000;757;514
3.804;1000;770;510
3.805;1000;778;512
3.806;1000;782;514
3.807;1000;783;514
3.808;1000;783;515
3.809;1000;778;511
3.81;1000;766;513
3.811;1000;747;515
3.812;1000;726;515
3.813;1000;700;515
3.814;1000;669;512
3.815;1000;635;515
3.816;1000;601;518
3.817;1000;570;513
3.818;1000;543;517
3.819;1000;524;512
3.82;1000;507;515
3.821;1000;495;515
3.822;1000;487;515
3.823;1000;481;515
3.824;1000;475;512
3.825;1000;471;514
3.826;1000;467;515
3.827;1000;467;515
3.828;1000;467;515
3.829;1000;467;518
3.83;1000;466;515
3.831;1000;466;516
3.832;1000;465;514
3.833;1000;464;518
3.834;1000;461;512
3.835;1000;460;515
3.836;1000;460;516
3.837;1000;459;515
3.838;1000;457;516
3.839;1000;456;512
3.84;1000;456;515
3.841;1000;458;516
3.842;1000;457;515
3.843;1000;457;518
3.844;1000;459;514
3.845;1000;461;515
3.846;1000;463;515
3.847;1000;466;518
3.848;1000;469;518
3.849;1000;471;514
3.85;1000;471;517
3.851;1000;470;518
3.852;1000;471;516
3.853;1000;473;517
3.854;1000;476;515
3.855;1000;478;515
3.856;1000;478;516
3.857;1000;480;517
3.858;1000;478;517
3.859;1000;474;515
3.86;1000;476;515
3.861;1000;480;514
3.862;1000;479;518
3.863;1000;476;515
3.864;1000;472;518
3.865;1000;472;515
3.866;1000;473;517
3.867;1000;475;515
3.868;1000;477;515
3.869;1000;479;511
3.87;1000;480;514
3.871;1000;483;515
3.872;1000;486;515
3.873;1000;487;515
3.874;1000;486;513
3.875;1000;486;513
3.876;1000;486;515
3.877;1000;485;515
3.878;1000;485;514
3.879;1000;486;515
3.88;1000;490;515
3.881;1000;490;512
3.882;1000;487;516
3.883;1000;486;515
3.884;1000;488;513
3.885;1000;488;513
3.886;1000;487;516
3.887;1000;489;515
3.888;1000;490;514
3.889;1000;492;516
3.89;1000;496;514
3.891;1000;498;515
3.892;1000;498;515
3.893;1000;496;515
3.894;1000;493;513
3.895;1000;495;513
3.896;1000;498;514
3.897;1000;498;515
3.898;1000;497;514
3.899;1000;494;510
3.9;1000;491;515
3.901;1000;489;514
3.902;1000;487;513
3.903;1000;487;513
3.904;1000;489;515
3.905;1000;491;513
3.906;1000;494;515
3.907;1000;498;513
3.908;1000;501;515
3.909;1000;502;510
3.91;1000;501;512
3.911;1000;500;514
3.912;1000;501;512
3.913;1000;501;515
3.914;1000;501;510
3.915;1000;503;512
3.916;1000;504;513
3.917;1000;505;514
3.918;1000;506;514
3.919;1000;507;510
3.92;1000;506;512
3.921;1000;508;513
3.922;1000;509;512
3.923;1000;506;516
3.924;1000;503;511
3.925;1000;504;513
3.926;1000;504;512
3.927;1000;500;517
3.928;1000;503;513
3.929;1000;508;511
3.93;1000;511;514
3.931;1000;513;515
3.932;1000;513;513
3.933;1000;514;513
3.934;1000;515;512
3.935;1000;517;511
3.936;1000;517;513
3.937;1000;513;513
3.938;1000;513;513
3.939;1000;517;512
3.94;1000;517;512
3.941;1000;515;511
3.942;1000;514;516
3.943;1000;512;512
3.944;1000;513;515
3.945;1000;516;513
3.946;1000;517;514
3.947;1000;517;513
3.948;1000;516;513
3.949;1000;518;509
3.95;1000;521;512
3.951;1000;522;512
3.952;1000;523;512
3.953;1000;521;513
3.954;1000;520;509
3.955;1000;519;512
3.956;1000;521;513
3.957;1000;522;513
3.958;1000;525;513
3.959;1000;525;509
3.96;1000;524;511
3.961;1000;521;516
3.962;1000;521;511
3.963;1000;519;514
3.964;1000;515;511
3.965;1000;514;512
3.966;1000;514;514
3.967;1000;517;513
3.968;1000;521;514
3.969;1000;526;511
3.97;1000;531;512
3.971;1000;533;514
3.972;1000;536;513
3.973;1000;540;514
3.974;1000;541;515
3.975;1000;541;513
3.976;1000;539;512
3.977;1000;537;517
3.978;1000;536;514
3.979;1000;536;512
3.98;1000;535;513
3.981;1000;532;515
3.982;1000;529;515
3.983;1000;527;515
3.984;1000;527;513
3.985;1000;533;513
3.986;1000;544;512
3.987;1000;549;516
3.988;1000;551;515
3.989;1000;551;513
3.99;1000;552;514
3.991;1000;554;512
3.992;1000;555;516
3.993;1000;556;514
3.994;1000;555;511
3.995;1000;555;514
3.996;1000;556;513
3.997;1000;556;513
3.998;1000;556;514
3.999;1000;556;512
4;1000;556;512
4.001;1000;555;513
4.002;1000;553;514
4.003;1000;552;514
4.004;1000;552;512
4.005;1000;553;513
4.006;1000;555;512
4.007;1000;558;516
4.008;1000;560;513
4.009;1000;560;515
4.01;1000;562;514
4.011;1000;563;515
4.012;1000;564;515
4.013;1000;563;514
4.014;1000;564;511
4.015;1000;566;512
4.016;1000;568;515
4.017;1000;568;514
4.018;1000;567;515
4.019;1000;567;512
4.02;1000;568;514
4.021;1000;568;515
4.022;1000;564;515
4.023;1000;565;516
4.024;1000;568;513
4.025;1000;570;514
4.026;1000;572;519
4.027;1000;574;515
4.028;1000;573;519
4.029;1000;574;514
4.03;1000;574;516
4.031;1000;572;518
4.032;1000;570;518
4.033;1000;568;519
4.034;1000;567;517
4.035;1000;566;518
4.036;1000;563;517
4.037;1000;564;521
4.038;1000;568;519
4.039;1000;567;522
4.04;1000;569;521
4.041;1000;570;522
4.042;1000;566;522
4.043;1000;565;522
4.044;1000;567;519
4.045;1000;568;521
4.046;1000;570;524
4.047;1000;571;524
4.048;1000;574;525
4.049;1000;575;522
4.05;1000;574;524
4.051;1000;570;526
4.052;1000;569;527
4.053;1000;571;528
4.054;1000;568;525
4.055;1000;562;527
4.056;1000;560;532
4.057;1000;561;528
4.058;1000;560;531
4.059;1000;560;527
4.06;1000;560;529
4.061;1000;555;533
4.062;1000;551;532
4.063;1000;547;532
4.064;1000;545;530
4.065;1000;542;532
4.066;1000;540;534
4.067;1000;539;535
4.068;1000;537;536
4.069;1000;534;532
4.07;1000;531;535
4.071;1000;532;538
4.072;1000;534;536
4.073;1000;533;540
4.074;1000;530;535
4.075;1000;525;540
4.076;1000;520;540
4.077;1000;513;540
4.078;1000;509;541
4.079;1000;504;538
4.08;1000;503;540
4.081;1000;502;542
4.082;1000;499;543
4.083;1000;500;543
4.084;1000;501;543
4.085;1000;499;543
4.086;1000;498;545
4.087;1000;498;546
4.088;1000;496;545
4.089;1000;495;545
4.09;1000;492;547
4.091;1000;492;549
4.092;1000;494;547
4.093;1000;493;547
4.094;1000;491;549
4.095;1000;488;547
4.096;1000;485;549
4.097;1000;483;548
4.098;1000;481;552
4.099;1000;483;547
4.1;1000;485;550
4.101;1000;486;552
4.102;1000;484;551
4.103;1000;480;551
4.104;1000;475;548
4.105;1000;473;553
4.106;1000;473;553
4.107;1000;476;552
4.108;1000;477;552
4.109;1000;478;550
4.11;1000;478;551
4.111;1000;477;552
4.112;1000;478;553
4.113;1000;478;553
4.114;1000;473;550
4.115;1000;473;551
4.116;1000;475;554
4.117;1000;475;552
4.118;1000;472;555
4.119;1000;470;551
4.12;1000;469;553
4.121;1000;468;553
4.122;1000;471;551
4.123;1000;474;551
4.124;1000;475;550
4.125;1000;472;550
4.126;1000;471;551
4.127;1000;469;551
4.128;1000;467;551
4.129;1000;472;548
4.13;1000;475;549
4.131;1000;476;550
4.132;1000;477;551
4.133;1000;477;550
4.134;1000;476;547
4.135;1000;477;548
4.136;1000;479;548
4.137;1000;483;547
4.138;1000;483;545
4.139;1000;486;543
4.14;1000;485;543
4.141;1000;483;543
4.142;1000;482;542
4.143;1000;481;545
4.144;1000;479;542
4.145;1000;480;542
4.146;1000;481;543
4.147;1000;482;543
4.148;1000;483;543
4.149;1000;480;540
4.15;1000;479;541
4.151;1000;481;542
4.152;1000;483;537
4.153;1000;483;540
4.154;1000;480;536
4.155;1000;478;536
4.156;1000;476;539
4.157;1000;473;536
4.158;1000;474;539
4.159;1000;478;534
4.16;1000;481;536
4.161;1000;480;534
4.162;1000;477;537
4.163;1000;477;536
4.164;1000;479;535
4.165;1000;481;535
4.166;1000;480;533
4.167;1000;479;536
4.168;1000;477;532
4.169;1000;477;530
4.17;1000;480;531
4.171;1000;481;531
4.172;1000;481;530
4.173;1000;483;530
4.174;1000;486;527
4.175;1000;487;528
4.176;1000;487;529
4.177;1000;489;528
4.178;1000;489;528
4.179;1000;488;525
4.18;1000;487;525
4.181;1000;483;526
4.182;1000;481;524
4.183;1000;483;527
4.184;1000;485;521
4.185;1000;486;525
4.186;1000;485;526
4.187;1000;486;521
4.188;1000;489;523
4.189;1000;491;518
4.19;1000;490;519
4.191;1000;489;520
4.192;1000;489;519
4.193;1000;488;519
4.194;1000;489;515
4.195;1000;489;516
4.196;1000;488;518
4.197;1000;487;518
4.198;1000;487;517
4.199;1000;485;513
4.2;1000;483;518
4.201;1000;482;515
4.202;1000;480;514
4.203;1000;478;515
4.204;1000;479;511
4.205;1000;481;512
4.206;1000;487;513
4.207;1000;489;512
4.208;1000;488;513
4.209;1000;487;509
4.21;1000;487;510
4.211;1000;490;510
4.212;1000;492;511
4.213;1000;495;511
4.214;1000;496;507
4.215;1000;492;508
4.216;1000;487;513
4.217;1000;487;508
4.218;1000;489;511
4.219;1000;491;504
4.22;1000;490;507
4.221;1000;488;508
4.222;1000;488;507
4.223;1000;486;507
4.224;1000;489;503
4.225;1000;494;505
4.226;1000;497;506
4.227;1000;495;504
4.228;1000;492;507
4.229;1000;489;503
4.23;1000;490;506
4.231;1000;492;507
4.232;1000;495;503
4.233;1000;495;505
4.234;1000;494;500
4.235;1000;495;502
4.236;1000;495;504
4.237;1000;495;503
4.238;1000;496;504
4.239;1000;497;502
4.24;1000;496;501
4.241;1000;492;503
4.242;1000;490;503
4.243;1000;491;503
4.244;1000;492;501
4.245;1000;493;500
4.246;1000;491;499
4.247;1000;490;504
4.248;1000;490;500
4.249;1000;491;501
4.25;1000;492;502
4.251;1000;492;499
4.252;1000;493;502
4.253;1000;493;502
4.254;1000;491;499
4.255;1000;489;501
4.256;1000;491;503
4.257;1000;491;502
4.258;1000;492;501
4.259;1000;491;501
4.26;1000;492;501
4.261;1000;495;503
4.262;1000;499;501
4.263;1000;504;504
4.264;1000;507;499
4.265;1000;508;501
4.266;1000;510;504
4.267;1000;511;502
4.268;1000;508;503
4.269;1000;504;499
4.27;1000;504;501
4.271;1000;505;502
4.272;1000;505;502
4.273;1000;504;504
4.274;1000;504;501
4.275;1000;503;502
4.276;1000;502;503
4.277;1000;503;502
4.278;1000;502;505
4.279;1000;500;500
4.28;1000;504;505
4.281;1000;507;506
4.282;1000;505;503
4.283;1000;504;504
4.284;1000;501;501
4.285;1000;500;503
4.286;1000;501;504
4.287;1000;502;504
4.288;1000;502;505
4.289;1000;502;502
4.29;1000;503;504
4.291;1000;502;506
4.292;1000;499;505
4.293;1000;497;505
4.294;1000;497;507
4.295;1000;499;505
4.296;1000;502;507
4.297;1000;503;507
4.298;1000;501;507
4.299;1000;503;505
4.3;1000;507;505
4.301;1000;508;506
4.302;1000;509;506
4.303;1000;510;507
4.304;1000;513;505
4.305;1000;515;507
4.306;1000;516;505
4.307;1000;515;510
4.308;1000;514;509
4.309;1000;515;506
4.31;1000;518;510
4.311;1000;519;511
4.312;1000;519;508
4.313;1000;519;510
4.314;1000;517;508
4.315;1000;514;510
4.316;1000;512;509
4.317;1000;513;510
4.318;1000;512;511
4.319;1000;511;508
4.32;1000;510;510
4.321;1000;510;511
4.322;1000;505;511
4.323;1000;505;512
4.324;1000;508;510
4.325;1000;507;511
4.326;1000;508;515
4.327;1000;511;512
4.328;1000;515;515
4.329;1000;518;511
4.33;1000;519;514
4.331;1000;519;514
4.332;1000;519;514
4.333;1000;520;515
4.334;1000;521;511
4.335;1000;520;513
4.336;1000;519;515
4.337;1000;518;515
4.338;1000;516;516
4.339;1000;515;514
4.34;1000;514;514
4.341;1000;514;516
4.342;1000;512;517
4.343;1000;510;515
4.344;1000;509;516
4.345;1000;509;517
4.346;1000;508;516
4.347;1000;511;520
4.348;1000;519;518
4.349;1000;523;515
4.35;1000;522;517
4.351;1000;521;518
4.352;1000;523;518
4.353;1000;524;519
4.354;1000;524;516
4.355;1000;523;518
4.356;1000;519;517
4.357;1000;519;521
4.358;1000;519;519
4.359;1000;518;522
4.36;1000;517;519
4.361;1000;515;521
4.362;1000;515;520
4.363;1000;517;520
4.364;1000;517;516
4.365;1000;516;519
4.366;1000;514;520
4.367;1000;512;519
4.368;1000;513;521
4.369;1000;515;518
4.37;1000;519;519
4.371;1000;523;520
4.372;1000;526;521
4.373;1000;527;522
4.374;1000;526;518
4.375;1000;524;519
4.376;1000;521;524
4.377;1000;518;519
4.378;1000;517;523
4.379;1000;516;518
4.38;1000;516;520
4.381;1000;516;522
4.382;1000;519;521
4.383;1000;521;522
4.384;1000;518;519
4.385;1000;516;521
4.386;1000;516;522
4.387;1000;514;520
4.388;1000;514;524
4.389;1000;516;519
4.39;1000;518;523
4.391;1000;521;524
4.392;1000;524;520
4.393;1000;527;523
4.394;1000;527;520
4.395;1000;526;521
4.396;1000;525;522
4.397;1000;524;522
4.398;1000;524;522
4.399;1000;519;520
4.4;1000;517;520
4.401;1000;516;522
4.402;1000;515;522
4.403;1000;514;523
4.404;1000;515;519
4.405;1000;515;520
4.406;1000;515;521
4.407;1000;516;522
4.408;1000;517;520
4.409;1000;516;521
4.41;1000;518;521
4.411;1000;520;519
4.412;1000;521;522
4.413;1000;519;522
4.414;1000;519;519
4.415;1000;518;520
4.416;1000;517;521
4.417;1000;516;521
4.418;1000;516;520
4.419;1000;519;521
4.42;1000;521;520
4.421;1000;521;522
4.422;1000;520;520
4.423;1000;516;522
4.424;1000;511;518
4.425;1000;509;520
4.426;1000;511;522
4.427;1000;515;519
4.428;1000;517;520
4.429;1000;513;517
4.43;1000;510;518
4.431;1000;511;519
4.432;1000;512;519
4.433;1000;512;519
4.434;1000;512;518
4.435;1000;513;518
4.436;1000;510;519
4.437;1000;505;518
4.438;1000;502;521
4.439;1000;499;516
4.44;1000;499;521
4.441;1000;504;521
4.442;1000;507;518
4.443;1000;505;518
4.444;1000;508;515
4.445;1000;511;517
4.446;1000;515;518
4.447;1000;519;518
4.448;1000;522;518
4.449;1000;523;514
4.45;1000;519;515
4.451;1000;517;518
4.452;1000;518;517
4.453;1000;518;517
4.454;1000;519;519
4.455;1000;520;516
4.456;1000;519;517
4.457;1000;518;516
4.458;1000;518;516
4.459;1000;516;512
4.46;1000;515;515
4.461;1000;510;515
4.462;1000;504;516
4.463;1000;500;515
4.464;1000;497;513
4.465;1000;497;513
4.466;1000;503;515
4.467;1000;506;515
4.468;1000;508;513
4.469;1000;508;516
4.47;1000;507;515
4.471;1000;508;511
4.472;1000;511;515
4.473;1000;512;513
4.474;1000;511;510
4.475;1000;509;513
4.476;1000;508;512
4.477;1000;507;512
4.478;1000;508;512
4.479;1000;509;510
4.48;1000;508;511
4.481;1000;506;512
4.482;1000;504;511
4.483;1000;503;512
4.484;1000;505;510
4.485;1000;505;510
4.486;1000;505;509
4.487;1000;504;513
4.488;1000;506;510
4.489;1000;506;510
4.49;1000;507;511
4.491;1000;505;509
4.492;1000;509;512
4.493;1000;511;511
4.494;1000;510;510
4.495;1000;510;509
4.496;1000;510;511
4.497;1000;508;510
4.498;1000;506;510
4.499;1000;506;510
4.5;1000;510;510
4.501;1000;511;511
4.502;1000;511;510
4.503;1000;512;511
4.504;1000;511;508
4.505;1000;510;512
4.506;1000;512;512
4.507;1000;516;512
4.508;1000;519;511
4.509;1000;522;509
4.51;1000;521;509
4.511;1000;519;510
4.512;1000;516;510
4.513;1000;514;509
4.514;1000;514;511
4.515;1000;514;510
4.516;1000;512;511
4.517;1000;512;509
4.518;1000;513;512
4.519;1000;514;508
4.52;1000;513;510
4.521;1000;511;512
4.522;1000;508;510
4.523;1000;504;510
4.524;1000;497;506
4.525;1000;499;508
4.526;1000;501;509
4.527;1000;498;509
4.528;1000;497;510
4.529;1000;501;508
4.53;1000;503;508
4.531;1000;503;509
4.532;1000;502;508
4.533;1000;503;512
4.534;1000;504;506
4.535;1000;503;511
4.536;1000;500;511
4.537;1000;496;508
4.538;1000;492;509
4.539;1000;491;505
4.54;1000;484;507
4.541;1000;484;508
4.542;1000;485;508
4.543;1000;487;509
4.544;1000;489;506
4.545;1000;492;507
4.546;1000;492;509
4.547;1000;491;509
4.548;1000;491;509
4.549;1000;495;506
4.55;1000;498;508
4.551;1000;501;512
4.552;1000;502;507
4.553;1000;504;511
4.554;1000;507;506
4.555;1000;503;510
4.556;1000;499;510
4.557;1000;498;509
4.558;1000;497;510
4.559;1000;496;506
4.56;1000;493;508
4.561;1000;491;509
4.562;1000;489;510
4.563;1000;488;510
4.564;1000;486;508
4.565;1000;487;508
4.566;1000;488;510
4.567;1000;491;510
4.568;1000;491;509
4.569;1000;493;509
4.57;1000;499;510
4.571;1000;500;508
4.572;1000;497;511
4.573;1000;496;511
4.574;1000;495;508
4.575;1000;494;510
4.576;1000;496;511
4.577;1000;496;511
4.578;1000;493;510
4.579;1000;489;511
4.58;1000;484;510
4.581;1000;481;512
4.582;1000;480;510
4.583;1000;479;513
4.584;1000;482;510
4.585;1000;485;512
4.586;1000;485;514
4.587;1000;485;512
4.588;1000;487;513
4.589;1000;489;509
4.59;1000;492;510
4.591;1000;496;512
4.592;1000;500;512
4.593;1000;501;513
4.594;1000;500;510
4.595;1000;501;511
4.596;1000;500;512
4.597;1000;502;511
4.598;1000;502;514
4.599;1000;499;510
4.6;1000;495;515
4.601;1000;491;515
4.602;1000;487;512
4.603;1000;486;513
4.604;1000;488;510
4.605;1000;492;512
4.606;1000;495;513
4.607;1000;496;512
4.608;1000;496;515
4.609;1000;490;510
4.61;1000;484;511
4.611;1000;482;514
4.612;1000;481;512
4.613;1000;475;514
4.614;1000;470;512
4.615;1000;469;513
4.616;1000;467;511
4.617;1000;467;514
4.618;1000;466;514
4.619;1000;465;511
4.62;1000;463;512
4.621;1000;462;514
4.622;1000;467;513
4.623;1000;473;513
4.624;1000;475;512
4.625;1000;478;512
4.626;1000;483;512
4.627;1000;491;516
4.628;1000;501;515
4.629;1000;510;512
4.63;1000;519;514
4.631;1000;530;516
4.632;1000;540;513
4.633;1000;552;515
4.634;1000;563;512
4.635;1000;573;514
4.636;1000;586;514
4.637;1000;604;513
4.638;1000;620;514
4.639;1000;632;511
4.64;1000;645;512
4.641;1000;656;513
4.642;1000;666;514
4.643;1000;677;515
4.644;1000;690;511
4.645;1000;703;512
4.646;1000;716;516
4.647;1000;727;512
4.648;1000;738;515
4.649;1000;745;510
4.65;1000;747;515
4.651;1000;745;514
4.652;1000;740;513
4.653;1000;732;514
4.654;1000;716;511
4.655;1000;693;512
4.656;1000;665;514
4.657;1000;635;514
4.658;1000;603;514
4.659;1000;568;512
4.66;1000;537;512
4.661;1000;511;513
4.662;1000;490;515
4.663;1000;472;513
4.664;1000;456;513
4.665;1000;444;514
4.666;1000;440;511
4.667;1000;439;516
4.668;1000;438;513
4.669;1000;438;511
4.67;1000;437;512
4.671;1000;438;514
4.672;1000;438;513
4.673;1000;435;514
4.674;1000;432;512
4.675;1000;430;512
4.676;1000;429;512
4.677;1000;426;516
4.678;1000;425;514
4.679;1000;424;516
4.68;1000;423;514
4.681;1000;422;515
4.682;1000;419;514
4.683;1000;416;514
4.684;1000;415;511
4.685;1000;418;513
4.686;1000;419;514
4.687;1000;421;514
4.688;1000;424;515
4.689;1000;429;511
4.69;1000;430;512
4.691;1000;431;514
4.692;1000;432;515
4.693;1000;432;515
4.694;1000;433;512
4.695;1000;433;513
4.696;1000;435;518
4.697;1000;437;513
4.698;1000;439;516
4.699;1000;440;511
4.7;1000;440;513
4.701;1000;438;515
4.702;1000;436;515
4.703;1000;432;515
4.704;1000;431;512
4.705;1000;430;513
4.706;1000;430;515
4.707;1000;433;513
4.708;1000;434;517
4.709;1000;433;514
4.71;1000;435;515
4.711;1000;436;516
4.712;1000;436;512
4.713;1000;436;516
4.714;1000;435;512
4.715;1000;436;515
4.716;1000;437;515
4.717;1000;439;514
4.718;1000;437;515
4.719;1000;440;512
4.72;1000;446;513
4.721;1000;448;515
4.722;1000;445;515
4.723;1000;442;514
4.724;1000;440;515
4.725;1000;441;515
4.726;1000;443;516
4.727;1000;446;515
4.728;1000;450;518
4.729;1000;454;513
4.73;1000;455;514
4.731;1000;455;517
4.732;1000;451;515
4.733;1000;449;515
4.734;1000;448;513
4.735;1000;447;514
4.736;1000;449;515
4.737;1000;453;515
4.738;1000;455;516
4.739;1000;454;513
4.74;1000;453;514
4.741;1000;451;515
4.742;1000;448;515
4.743;1000;447;516
4.744;1000;448;513
4.745;1000;449;514
4.746;1000;450;515
4.747;1000;451;513
4.748;1000;451;514
4.749;1000;452;512
4.75;1000;451;512
4.751;1000;451;513
4.752;1000;450;514
4.753;1000;450;514
4.754;1000;454;511
4.755;1000;456;512
4.756;1000;459;515
4.757;1000;461;513
4.758;1000;462;516
4.759;1000;463;511
4.76;1000;462;514
4.761;1000;462;515
4.762;1000;460;513
4.763;1000;457;512
4.764;1000;456;510
4.765;1000;457;511
4.766;1000;459;512
4.767;1000;462;513
4.768;1000;463;513
4.769;1000;461;511
4.77;1000;457;512
4.771;1000;455;513
4.772;1000;455;513
4.773;1000;457;514
4.774;1000;459;511
4.775;1000;459;513
4.776;1000;462;514
4.777;1000;463;512
4.778;1000;463;511
4.779;1000;464;509
4.78;1000;468;510
4.781;1000;471;511
4.782;1000;473;510
4.783;1000;468;513
4.784;1000;463;510
4.785;1000;460;510
4.786;1000;461;512
4.787;1000;462;512
4.788;1000;462;512
4.789;1000;462;510
4.79;1000;462;511
4.791;1000;466;513
4.792;1000;472;510
4.793;1000;473;514
4.794;1000;474;508
4.795;1000;473;510
4.796;1000;473;513
4.797;1000;472;511
4.798;1000;472;514
4.799;1000;473;510
4.8;1000;475;512
4.801;1000;478;515
4.802;1000;479;512
4.803;1000;479;515
4.804;1000;478;512
4.805;1000;475;513
4.806;1000;475;515
4.807;1000;476;513
4.808;1000;472;517
4.809;1000;472;511
4.81;1000;475;513
4.811;1000;481;518
4.812;1000;484;513
4.813;1000;486;516
4.814;1000;488;512
4.815;1000;490;516
4.816;1000;491;513
4.817;1000;492;516
4.818;1000;492;516
4.819;1000;495;513
4.82;1000;495;513
4.821;1000;495;516
4.822;1000;493;515
4.823;1000;491;516
4.824;1000;491;514
4.825;1000;492;515
4.826;1000;493;512
4.827;1000;493;518
4.828;1000;494;515
4.829;1000;496;512
4.83;1000;500;513
4.831;1000;504;515
4.832;1000;507;515
4.833;1000;509;515
4.834;1000;509;513
4.835;1000;509;513
4.836;1000;508;515
4.837;1000;507;515
4.838;1000;505;515
4.839;1000;506;513
4.84;1000;508;515
4.841;1000;508;512
4.842;1000;508;516
4.843;1000;511;514
4.844;1000;513;516
4.845;1000;515;513
4.846;1000;516;517
4.847;1000;518;514
4.848;1000;519;516
4.849;1000;519;513
4.85;1000;522;514
4.851;1000;525;515
4.852;1000;525;513
4.853;1000;524;517
4.854;1000;525;514
4.855;1000;527;518
4.856;1000;528;519
4.857;1000;527;515
4.858;1000;527;516
4.859;1000;527;513
4.86;1000;524;514
4.861;1000;523;515
4.862;1000;526;515
4.863;1000;531;517
4.864;1000;534;513
4.865;1000;536;514
4.866;1000;538;515
4.867;1000;540;516
4.868;1000;539;517
4.869;1000;535;513
4.87;1000;532;515
4.871;1000;537;519
4.872;1000;539;515
4.873;1000;541;519
4.874;1000;541;514
4.875;1000;538;517
4.876;1000;539;518
4.877;1000;540;517
4.878;1000;539;518
4.879;1000;539;515
4.88;1000;539;516
4.881;1000;536;518
4.882;1000;534;519
4.883;1000;534;519
4.884;1000;532;517
4.885;1000;532;518
4.886;1000;530;520
4.887;1000;531;521
4.888;1000;533;522
4.889;1000;534;519
4.89;1000;534;521
4.891;1000;533;522
4.892;1000;531;521
4.893;1000;529;522
4.894;1000;525;520
4.895;1000;522;521
4.896;1000;523;523
4.897;1000;524;524
4.898;1000;525;524
4.899;1000;525;525
4.9;1000;524;525
4.901;1000;523;525
4.902;1000;521;529
4.903;1000;521;526
4.904;1000;520;527
4.905;1000;521;528
4.906;1000;516;527
4.907;1000;510;531
4.908;1000;507;529
4.909;1000;506;528
4.91;1000;506;531
4.911;1000;506;531
4.912;1000;505;531
4.913;1000;501;531
4.914;1000;497;529
4.915;1000;496;531
4.916;1000;494;533
4.917;1000;492;534
4.918;1000;488;533
4.919;1000;485;533
4.92;1000;483;535
4.921;1000;482;534
4.922;1000;478;539
4.923;1000;473;536
4.924;1000;470;540
4.925;1000;467;537
4.926;1000;467;539
4.927;1000;468;540
4.928;1000;473;539
4.929;1000;473;543
4.93;1000;470;541
4.931;1000;467;540
4.932;1000;465;545
4.933;1000;464;543
4.934;1000;460;546
4.935;1000;458;545
4.936;1000;457;547
4.937;1000;456;545
4.938;1000;456;546
4.939;1000;454;543
4.94;1000;450;545
4.941;1000;446;547
4.942;1000;444;547
4.943;1000;443;548
4.944;1000;442;545
4.945;1000;442;547
4.946;1000;442;548
4.947;1000;446;549
4.948;1000;447;551
4.949;1000;446;547
4.95;1000;447;548
4.951;1000;448;553
4.952;1000;446;548
4.953;1000;445;552
4.954;1000;448;547
4.955;1000;448;550
4.956;1000;448;551
4.957;1000;444;551
4.958;1000;442;551
4.959;1000;441;548
4.96;1000;443;550
4.961;1000;444;551
4.962;1000;443;549
4.963;1000;441;554
4.964;1000;442;550
4.965;1000;442;551
4.966;1000;442;550
4.967;1000;445;553
4.968;1000;451;552
4.969;1000;456;550
4.97;1000;457;552
4.971;1000;455;553
4.972;1000;454;551
4.973;1000;455;551
4.974;1000;454;548
4.975;1000;451;549
4.976;1000;448;550
4.977;1000;449;550
4.978;1000;451;551
4.979;1000;449;547
4.98;1000;446;548
4.981;1000;440;547
4.982;1000;439;550
4.983;1000;443;548
4.984;1000;445;550
4.985;1000;449;547
4.986;1000;452;545
4.987;1000;454;550
4.988;1000;457;546
4.989;1000;460;543
4.99;1000;464;544
4.991;1000;467;545
4.992;1000;469;545
4.993;1000;471;545
4.994;1000;471;542
4.995;1000;468;542
4.996;1000;466;541
4.997;1000;463;545
4.998;1000;462;542
4.999;1000;463;544
5;1000;464;541
5.001;1000;462;542
5.002;1000;460;540
5.003;1000;458;540
5.004;1000;457;537
5.005;1000;460;537
5.006;1000;458;538
5.007;1000;457;538
5.008;1000;458;538
5.009;1000;461;534
5.01;1000;466;535
5.011;1000;470;536
5.012;1000;469;536
5.013;1000;467;535
5.014;1000;466;531
5.015;1000;467;531
5.016;1000;468;536
5.017;1000;469;530
5.018;1000;471;533
5.019;1000;471;528
5.02;1000;469;529
5.021;1000;467;530
5.022;1000;468;529
5.023;1000;467;529
5.024;1000;465;526
5.025;1000;467;526
5.026;1000;467;527
5.027;1000;465;525
5.028;1000;466;528
5.029;1000;468;524
5.03;1000;470;525
5.031;1000;471;527
5.032;1000;473;522
5.033;1000;474;524
5.034;1000;473;520
5.035;1000;472;521
5.036;1000;470;521
5.037;1000;469;521
5.038;1000;471;521
5.039;1000;474;517
5.04;1000;472;518
5.041;1000;467;519
5.042;1000;466;519
5.043;1000;467;517
5.044;1000;470;517
5.045;1000;472;516
5.046;1000;471;515
5.047;1000;469;518
5.048;1000;471;515
5.049;1000;472;512
5.05;1000;474;514
5.051;1000;474;515
5.052;1000;475;513
5.053;1000;474;512
5.054;1000;475;509
5.055;1000;477;510
5.056;1000;477;511
5.057;1000;474;511
5.058;1000;473;511
5.059;1000;472;507
5.06;1000;471;508
5.061;1000;472;507
5.062;1000;471;512
5.063;1000;471;507
5.064;1000;469;510
5.065;1000;469;507
5.066;1000;469;508
5.067;1000;472;507
5.068;1000;473;507
5.069;1000;474;504
5.07;1000;477;504
5.071;1000;478;505
5.072;1000;479;504
5.073;1000;478;505
5.074;1000;478;502
5.075;1000;478;503
5.076;1000;479;504
5.077;1000;481;504
5.078;1000;482;505
5.079;1000;483;501
5.08;1000;484;502
5.081;1000;483;506
5.082;1000;482;501
5.083;1000;480;505
5.084;1000;479;501
5.085;1000;479;503
5.086;1000;480;503
5.087;1000;483;503
5.088;1000;487;504
5.089;1000;488;501
5.09;1000;489;501
5.091;1000;491;503
5.092;1000;491;502
5.093;1000;487;502
5.094;1000;484;504
5.095;1000;484;502
5.096;1000;484;503
5.097;1000;486;503
5.098;1000;487;502
5.099;1000;488;499
5.1;1000;488;500
5.101;1000;488;502
5.102;1000;487;502
5.103;1000;486;502
5.104;1000;488;500
5.105;1000;490;500
5.106;1000;490;502
5.107;1000;491;502
5.108;1000;490;501
5.109;1000;489;502
5.11;1000;489;503
5.111;1000;492;499
5.112;1000;497;504
5.113;1000;500;501
5.114;1000;501;499
5.115;1000;502;502
5.116;1000;500;501
5.117;1000;499;501
5.118;1000;498;501
5.119;1000;495;499
5.12;1000;495;500
5.121;1000;497;502
5.122;1000;496;503
5.123;1000;495;503
5.124;1000;492;500
5.125;1000;491;501
5.126;1000;492;501
5.127;1000;496;505
5.128;1000;500;502
5.129;1000;501;504
5.13;1000;503;504
5.131;1000;502;505
5.132;1000;499;504
5.133;1000;496;504
5.134;1000;495;502
5.135;1000;494;504
5.136;1000;496;504
5.137;1000;497;505
5.138;1000;497;506
5.139;1000;498;502
5.14;1000;499;504
5.141;1000;499;505
5.142;1000;498;506
5.143;1000;496;508
5.144;1000;496;504
5.145;1000;497;505
5.146;1000;498;509
5.147;1000;501;505
5.148;1000;504;509
5.149;1000;506;506
5.15;1000;506;506
5.151;1000;505;508
5.152;1000;504;508
5.153;1000;505;511
5.154;1000;507;508
5.155;1000;507;509
5.156;1000;507;512
5.157;1000;509;511
5.158;1000;513;514
5.159;1000;512;509
5.16;1000;509;512
5.161;1000;506;512
5.162;1000;506;512
5.163;1000;506;513
5.164;1000;505;511
5.165;1000;504;512
5.166;1000;504;513
5.167;1000;506;514
5.168;1000;506;514
5.169;1000;509;512
5.17;1000;511;513
5.171;1000;511;515
5.172;1000;510;516
5.173;1000;512;514
5.174;1000;513;518
5.175;1000;513;517
5.176;1000;515;514
5.177;1000;515;519
5.178;1000;516;516
5.179;1000;515;514
5.18;1000;514;515
5.181;1000;514;516
5.182;1000;511;517
5.183;1000;509;518
5.184;1000;511;515
5.185;1000;515;516
5.186;1000;517;516
5.187;1000;519;520
5.188;1000;520;519
5.189;1000;524;517
5.19;1000;525;519
5.191;1000;525;520
5.192;1000;521;520
5.193;1000;520;521
5.194;1000;521;519
5.195;1000;519;521
5.196;1000;518;520
5.197;1000;519;520
5.198;1000;521;521
5.199;1000;522;519
5.2;1000;520;520
5.201;1000;519;521
5.202;1000;519;522
5.203;1000;519;523
5.204;1000;519;519
5.205;1000;520;520
5.206;1000;522;524
5.207;1000;524;521
5.208;1000;525;524
5.209;1000;524;519
5.21;1000;523;521
5.211;1000;521;524
5.212;1000;521;521
5.213;1000;521;522
5.214;1000;519;520
5.215;1000;520;521
5.216;1000;523;522
5.217;1000;523;522
5.218;1000;520;523
5.219;1000;521;519
5.22;1000;521;521
5.221;1000;519;523
5.222;1000;516;522
5.223;1000;515;525
5.224;1000;514;521
5.225;1000;515;525
5.226;1000;517;526
5.227;1000;518;522
5.228;1000;519;524
5.229;1000;524;520
5.23;1000;528;522
5.231;1000;531;523
5.232;1000;533;522
5.233;1000;533;524
5.234;1000;530;521
5.235;1000;526;521
5.236;1000;522;521
5.237;1000;522;525
5.238;1000;524;524
5.239;1000;524;521
5.24;1000;522;522
5.241;1000;519;523
5.242;1000;516;524
5.243;1000;516;523
5.244;1000;516;520
5.245;1000;516;525
5.246;1000;518;523
5.247;1000;521;523
5.248;1000;522;522
5.249;1000;523;526
5.25;1000;525;522
5.251;1000;526;524
5.252;1000;525;522
5.253;1000;524;524
5.254;1000;524;520
5.255;1000;523;522
5.256;1000;521;523
5.257;1000;520;522
5.258;1000;523;523
5.259;1000;527;520
5.26;1000;526;521
5.261;1000;521;522
5.262;1000;520;521
5.263;1000;519;523
5.264;1000;521;519
5.265;1000;521;519
5.266;1000;521;521
5.267;1000;524;521
5.268;1000;526;521
5.269;1000;526;519
5.27;1000;527;520
5.271;1000;527;524
5.272;1000;528;519
5.273;1000;528;522
5.274;1000;527;518
5.275;1000;525;519
5.276;1000;524;521
5.277;1000;523;520
5.278;1000;523;520
5.279;1000;521;518
5.28;1000;519;519
5.281;1000;519;520
5.282;1000;519;519
5.283;1000;518;522
5.284;1000;519;518
5.285;1000;518;519
5.286;1000;518;518
5.287;1000;519;520
5.288;1000;520;520
5.289;1000;519;517
5.29;1000;521;519
5.291;1000;521;520
5.292;1000;522;517
5.293;1000;523;518
5.294;1000;524;515
5.295;1000;527;515
5.296;1000;527;517
5.297;1000;526;517
5.298;1000;524;517
5.299;1000;524;514
5.3;1000;523;515
5.301;1000;522;514
5.302;1000;520;519
5.303;1000;521;515
5.304;1000;522;517
5.305;1000;524;515
5.306;1000;529;515
5.307;1000;531;514
5.308;1000;532;515
5.309;1000;532;512
5.31;1000;532;513
5.311;1000;532;514
5.312;1000;532;515
5.313;1000;533;514
5.314;1000;532;511
5.315;1000;530;512
5.316;1000;529;513
5.317;1000;530;514
5.318;1000;529;515
5.319;1000;527;510
5.32;1000;524;512
5.321;1000;525;513
5.322;1000;525;511
5.323;1000;522;509
5.324;1000;519;512
5.325;1000;519;509
5.326;1000;519;509
5.327;1000;522;511
5.328;1000;525;511
5.329;1000;527;514
5.33;1000;533;511
5.331;1000;535;512
5.332;1000;538;512
5.333;1000;538;511
5.334;1000;532;509
5.335;1000;526;510
5.336;1000;520;511
5.337;1000;515;511
5.338;1000;513;511
5.339;1000;515;508
5.34;1000;515;510
5.341;1000;514;511
5.342;1000;515;511
5.343;1000;518;510
5.344;1000;520;512
5.345;1000;522;510
5.346;1000;522;508
5.347;1000;521;512
5.348;1000;520;511
5.349;1000;519;508
5.35;1000;519;513
5.351;1000;519;511
5.352;1000;520;512
5.353;1000;522;512
5.354;1000;524;509
5.355;1000;524;509
5.356;1000;524;511
5.357;1000;523;511
5.358;1000;522;511
5.359;1000;523;508
5.36;1000;527;509
5.361;1000;528;510
5.362;1000;523;509
5.363;1000;518;513
5.364;1000;515;509
5.365;1000;513;510
5.366;1000;511;509
5.367;1000;511;513
5.368;1000;512;510
5.369;1000;512;508
5.37;1000;514;511
5.371;1000;514;512
5.372;1000;514;510
5.373;1000;514;510
5.374;1000;517;507
5.375;1000;519;508
5.376;1000;516;509
5.377;1000;513;510
5.378;1000;512;510
5.379;1000;512;507
5.38;1000;513;508
5.381;1000;513;508
5.382;1000;515;512
5.383;1000;517;508
5.384;1000;515;511
5.385;1000;510;510
5.386;1000;510;511
5.387;1000;512;509
5.388;1000;513;509
5.389;1000;513;507
5.39;1000;515;508
5.391;1000;519;509
5.392;1000;522;508
5.393;1000;523;510
5.394;1000;521;507
5.395;1000;520;508
5.396;1000;520;509
5.397;1000;519;510
5.398;1000;519;511
5.399;1000;519;507
5.4;1000;518;508
5.401;1000;518;512
5.402;1000;518;509
5.403;1000;514;509
5.404;1000;512;507
5.405;1000;512;507
5.406;1000;514;508
5.407;1000;519;509
5.408;1000;520;511
5.409;1000;520;508
5.41;1000;519;508
5.411;1000;520;507
5.412;1000;520;511
5.413;1000;519;512
5.414;1000;517;508
5.415;1000;517;510
5.416;1000;517;510
5.417;1000;516;509
5.418;1000;517;509
5.419;1000;515;505
5.42;1000;512;506
5.421;1000;508;508
5.422;1000;505;508
5.423;1000;504;510
5.424;1000;503;506
5.425;1000;503;508
5.426;1000;502;509
5.427;1000;500;509
5.428;1000;498;510
5.429;1000;493;508
5.43;1000;491;510
5.431;1000;489;507
5.432;1000;491;511
5.433;1000;494;508
5.434;1000;496;511
5.435;1000;498;510
5.436;1000;503;507
5.437;1000;511;510
5.438;1000;519;510
5.439;1000;528;513
5.44;1000;536;509
5.441;1000;544;508
5.442;1000;553;512
5.443;1000;563;511
5.444;1000;574;512
5.445;1000;586;511
5.446;1000;596;513
5.447;1000;611;512
5.448;1000;628;514
5.449;1000;648;511
5.45;1000;665;512
5.451;1000;676;515
5.452;1000;687;512
5.453;1000;698;513
5.454;1000;711;512
5.455;1000;719;511
5.456;1000;723;512
5.457;1000;732;513
5.458;1000;741;512
5.459;1000;743;513
5.46;1000;741;513
5.461;1000;738;514
5.462;1000;735;513
5.463;1000;730;516
5.464;1000;717;511
5.465;1000;700;513
5.466;1000;678;514
5.467;1000;654;513
5.468;1000;625;515
5.469;1000;592;512
5.47;1000;561;513
5.471;1000;533;514
5.472;1000;513;514
5.473;1000;497;515
5.474;1000;483;512
5.475;1000;476;513
5.476;1000;471;515
5.477;1000;465;513
5.478;1000;462;517
5.479;1000;464;513
5.48;1000;466;517
5.481;1000;467;518
5.482;1000;468;513
5.483;1000;468;515
5.484;1000;467;513
5.485;1000;469;514
5.486;1000;471;515
5.487;1000;470;514
5.488;1000;470;515
5.489;1000;470;512
5.49;1000;470;514
5.491;1000;469;516
5.492;1000;469;515
5.493;1000;470;516
5.494;1000;472;512
5.495;1000;472;514
5.496;1000;467;513
5.497;1000;463;518
5.498;1000;464;515
5.499;1000;467;518
5.5;1000;472;515
5.501;1000;474;516
5.502;1000;474;516
5.503;1000;475;516
5.504;1000;477;514
5.505;1000;478;515
5.506;1000;479;514
5.507;1000;481;518
5.508;1000;483;518
5.509;1000;486;514
5.51;1000;490;516
5.511;1000;491;517
5.512;1000;493;517
5.513;1000;494;518
5.514;1000;490;515
5.515;1000;486;518
5.516;1000;482;516
5.517;1000;480;516
5.518;1000;481;518
5.519;1000;484;514
5.52;1000;486;515
5.521;1000;489;516
5.522;1000;489;517
5.523;1000;487;517
5.524;1000;486;515
5.525;1000;486;515
5.526;1000;486;519
5.527;1000;487;515
5.528;1000;490;518
5.529;1000;492;513
5.53;1000;493;515
5.531;1000;496;517
5.532;1000;496;515
5.533;1000;495;515
5.534;1000;496;513
5.535;1000;496;514
5.536;1000;494;515
5.537;1000;493;515
5.538;1000;496;516
5.539;1000;500;513
5.54;1000;498;514
5.541;1000;493;515
5.542;1000;491;514
5.543;1000;489;517
5.544;1000;489;513
5.545;1000;493;518
5.546;1000;495;518
5.547;1000;495;514
5.548;1000;494;516
5.549;1000;494;513
5.55;1000;496;514
5.551;1000;497;515
5.552;1000;499;514
5.553;1000;500;515
5.554;1000;500;513
5.555;1000;502;513
5.556;1000;500;513
5.557;1000;499;517
5.558;1000;500;515
5.559;1000;502;513
5.56;1000;503;514
5.561;1000;500;515
5.562;1000;499;514
5.563;1000;499;517
5.564;1000;500;513
5.565;1000;500;515
5.566;1000;502;516
5.567;1000;504;516
5.568;1000;504;515
5.569;1000;504;518
5.57;1000;505;515
5.571;1000;506;517
5.572;1000;507;515
5.573;1000;506;517
5.574;1000;504;514
5.575;1000;501;514
5.576;1000;499;516
5.577;1000;502;516
5.578;1000;504;516
5.579;1000;504;514
5.58;1000;506;514
5.581;1000;505;515
5.582;1000;505;515
5.583;1000;504;517
5.584;1000;503;513
5.585;1000;504;514
5.586;1000;506;515
5.587;1000;507;516
5.588;1000;507;516
5.589;1000;508;513
5.59;1000;514;514
5.591;1000;519;519
5.592;1000;520;514
5.593;1000;519;518
5.594;1000;518;513
5.595;1000;518;514
5.596;1000;515;515
5.597;1000;513;515
5.598;1000;513;515
5.599;1000;513;513
5.6;1000;513;513
5.601;1000;513;515
5.602;1000;512;513
5.603;1000;510;517
5.604;1000;510;513
5.605;1000;509;514
5.606;1000;510;514
5.607;1000;512;517
5.608;1000;513;516
5.609;1000;512;514
5.61;1000;511;516
5.611;1000;512;516
5.612;1000;512;514
5.613;1000;513;515
5.614;1000;516;512
5.615;1000;520;512
5.616;1000;523;514
5.617;1000;525;515
5.618;1000;526;515
5.619;1000;527;511
5.62;1000;527;513
5.621;1000;525;512
5.622;1000;524;516
5.623;1000;521;513
5.624;1000;522;515
5.625;1000;525;514
5.626;1000;523;514
5.627;1000;522;513
5.628;1000;523;514
5.629;1000;522;512
5.63;1000;523;512
5.631;1000;524;514
5.632;1000;525;514
5.633;1000;527;513
5.634;1000;530;511
5.635;1000;532;512
5.636;1000;530;513
5.637;1000;531;514
5.638;1000;530;513
5.639;1000;531;515
5.64;1000;532;514
5.641;1000;530;511
5.642;1000;528;515
5.643;1000;530;513
5.644;1000;531;512
5.645;1000;531;512
5.646;1000;531;513
5.647;1000;534;513
5.648;1000;538;513
5.649;1000;542;511
5.65;1000;545;511
5.651;1000;546;513
5.652;1000;544;511
5.653;1000;543;515
5.654;1000;544;512
5.655;1000;544;512
5.656;1000;543;512
5.657;1000;543;515
5.658;1000;543;513
5.659;1000;544;512
5.66;1000;547;512
5.661;1000;546;513
5.662;1000;544;513
5.663;1000;544;514
5.664;1000;544;511
5.665;1000;546;512
5.666;1000;548;511
5.667;1000;550;515
5.668;1000;550;515
5.669;1000;554;511
5.67;1000;557;514
5.671;1000;557;515
5.672;1000;557;516
5.673;1000;558;516
5.674;1000;561;513
5.675;1000;564;514
5.676;1000;565;515
5.677;1000;563;515
5.678;1000;560;515
5.679;1000;558;514
5.68;1000;556;514
5.681;1000;555;515
5.682;1000;555;515
5.683;1000;555;518
5.684;1000;554;515
5.685;1000;553;516
5.686;1000;556;517
5.687;1000;558;515
5.688;1000;560;519
5.689;1000;560;516
5.69;1000;559;517
5.691;1000;560;520
5.692;1000;561;518
5.693;1000;560;519
5.694;1000;559;518
5.695;1000;560;518
5.696;1000;561;520
5.697;1000;556;520
5.698;1000;552;522
5.699;1000;551;518
5.7;1000;552;519
5.701;1000;550;522
5.702;1000;547;521
5.703;1000;545;524
5.704;1000;543;521
5.705;1000;541;525
5.706;1000;542;526
5.707;1000;543;523
5.708;1000;543;524
5.709;1000;542;522
5.71;1000;542;524
5.711;1000;541;525
5.712;1000;538;525
5.713;1000;534;526
5.714;1000;529;524
5.715;1000;526;525
5.716;1000;523;525
5.717;1000;521;530
5.718;1000;520;529
5.719;1000;520;527
5.72;1000;516;528
5.721;1000;511;530
5.722;1000;505;529
5.723;1000;503;532
5.724;1000;502;529
5.725;1000;499;532
5.726;1000;497;534
5.727;1000;497;533
5.728;1000;495;533
5.729;1000;492;536
5.73;1000;490;534
5.731;1000;488;536
5.732;1000;485;535
5.733;1000;483;537
5.734;1000;480;535
5.735;1000;477;536
5.736;1000;473;538
5.737;1000;472;539
5.738;1000;472;539
5.739;1000;470;537
5.74;1000;467;538
5.741;1000;463;540
5.742;1000;461;540
5.743;1000;459;542
5.744;1000;456;540
5.745;1000;456;540
5.746;1000;457;542
5.747;1000;458;543
5.748;1000;457;544
5.749;1000;457;542
5.75;1000;459;542
5.751;1000;461;547
5.752;1000;461;543
5.753;1000;456;547
5.754;1000;451;543
5.755;1000;448;544
5.756;1000;445;546
5.757;1000;444;545
5.758;1000;444;546
5.759;1000;444;544
5.76;1000;442;545
5.761;1000;440;547
5.762;1000;438;546
5.763;1000;435;549
5.764;1000;435;546
5.765;1000;436;547
5.766;1000;440;546
5.767;1000;444;550
5.768;1000;446;550
5.769;1000;444;548
5.77;1000;444;551
5.771;1000;446;551
5.772;1000;446;548
5.773;1000;447;548
5.774;1000;448;546
5.775;1000;449;548
5.776;1000;451;549
5.777;1000;454;550
5.778;1000;454;549
5.779;1000;453;550
5.78;1000;451;548
5.781;1000;449;550
5.782;1000;447;548
5.783;1000;445;551
5.784;1000;446;547
5.785;1000;448;548
5.786;1000;448;551
5.787;1000;448;549
5.788;1000;448;549
5.789;1000;449;546
5.79;1000;450;546
5.791;1000;449;548
5.792;1000;448;547
5.793;1000;449;549
5.794;1000;449;544
5.795;1000;447;545
5.796;1000;447;547
5.797;1000;445;544
5.798;1000;445;547
5.799;1000;448;544
5.8;1000;449;545
5.801;1000;449;547
5.802;1000;448;543
5.803;1000;447;545
5.804;1000;449;542
5.805;1000;454;542
5.806;1000;457;543
5.807;1000;455;542
5.808;1000;454;542
5.809;1000;455;538
5.81;1000;457;539
5.811;1000;460;541
5.812;1000;460;540
5.813;1000;460;541
5.814;1000;462;536
5.815;1000;463;537
5.816;1000;462;536
5.817;1000;462;540
5.818;1000;461;536
5.819;1000;459;538
5.82;1000;458;536
5.821;1000;456;536
5.822;1000;455;536
5.823;1000;456;535
5.824;1000;458;532
5.825;1000;456;533
5.826;1000;457;531
5.827;1000;461;535
5.828;1000;464;533
5.829;1000;464;529
5.83;1000;460;530
5.831;1000;459;531
5.832;1000;457;531
5.833;1000;456;531
5.834;1000;459;528
5.835;1000;459;529
5.836;1000;458;527
5.837;1000;457;527
5.838;1000;460;528
5.839;1000;461;524
5.84;1000;461;524
5.841;1000;459;525
5.842;1000;459;525
5.843;1000;459;525
5.844;1000;461;521
5.845;1000;461;521
5.846;1000;461;524
5.847;1000;460;520
5.848;1000;458;523
5.849;1000;456;518
5.85;1000;456;519
5.851;1000;456;521
5.852;1000;458;517
5.853;1000;457;518
5.854;1000;455;515
5.855;1000;455;515
5.856;1000;458;516
5.857;1000;457;515
5.858;1000;458;516
5.859;1000;459;512
5.86;1000;459;512
5.861;1000;462;513
5.862;1000;463;512
5.863;1000;463;515
5.864;1000;461;510
5.865;1000;457;514
5.866;1000;460;514
5.867;1000;462;510
5.868;1000;460;511
5.869;1000;457;508
5.87;1000;456;507
5.871;1000;458;509
5.872;1000;458;508
5.873;1000;458;508
5.874;1000;459;504
5.875;1000;458;506
5.876;1000;456;508
5.877;1000;455;508
5.878;1000;456;506
5.879;1000;455;508
5.88;1000;454;505
5.881;1000;455;504
5.882;1000;457;508
5.883;1000;459;505
5.884;1000;459;503
5.885;1000;456;503
5.886;1000;455;505
5.887;1000;455;504
5.888;1000;457;504
5.889;1000;457;501
5.89;1000;458;502
5.891;1000;461;502
5.892;1000;463;505
5.893;1000;463;503
5.894;1000;463;504
5.895;1000;464;503
5.896;1000;465;504
5.897;1000;466;503
5.898;1000;467;502
5.899;1000;467;499
5.9;1000;466;500
5.901;1000;464;502
5.902;1000;463;501
5.903;1000;462;502
5.904;1000;459;499
5.905;1000;459;499
5.906;1000;462;500
5.907;1000;464;501
5.908;1000;462;502
5.909;1000;460;499
5.91;1000;459;499
5.911;1000;460;504
5.912;1000;462;499
5.913;1000;464;502
5.914;1000;467;498
5.915;1000;470;499
5.916;1000;470;500
5.917;1000;470;500
5.918;1000;468;500
5.919;1000;466;498
5.92;1000;465;499
5.921;1000;463;499
5.922;1000;462;499
5.923;1000;459;502
5.924;1000;460;499
5.925;1000;463;499
5.926;1000;467;499
5.927;1000;467;502
5.928;1000;469;502
5.929;1000;473;499
5.93;1000;477;502
5.931;1000;480;503
5.932;1000;480;500
5.933;1000;479;501
5.934;1000;479;497
5.935;1000;480;499
5.936;1000;480;501
5.937;1000;478;502
5.938;1000;477;503
5.939;1000;476;499
5.94;1000;474;500
5.941;1000;473;500
5.942;1000;474;506
5.943;1000;474;501
5.944;1000;473;504
5.945;1000;475;503
5.946;1000;476;504
5.947;1000;476;501
5.948;1000;477;505
5.949;1000;476;502
5.95;1000;476;503
5.951;1000;478;504
5.952;1000;479;504
5.953;1000;481;504
5.954;1000;481;507
5.955;1000;481;504
5.956;1000;485;506
5.957;1000;487;505
5.958;1000;489;508
5.959;1000;491;505
5.96;1000;492;505
5.961;1000;493;509
5.962;1000;492;507
5.963;1000;491;508
5.964;1000;489;506
5.965;1000;489;506
5.966;1000;490;508
5.967;1000;493;508
5.968;1000;495;510
5.969;1000;494;506
5.97;1000;491;508
5.971;1000;491;509
5.972;1000;493;508
5.973;1000;497;512
5.974;1000;499;510
5.975;1000;499;512
5.976;1000;497;514
5.977;1000;498;511
5.978;1000;499;511
5.979;1000;499;510
5.98;1000;499;510
5.981;1000;496;512
5.982;1000;492;512
5.983;1000;491;514
5.984;1000;491;510
5.985;1000;491;512
5.986;1000;492;511
5.987;1000;492;516
5.988;1000;493;515
5.989;1000;494;512
5.99;1000;496;515
5.991;1000;498;515
5.992;1000;500;516
5.993;1000;499;516
5.994;1000;497;515
5.995;1000;499;517
5.996;1000;501;516
5.997;1000;503;517
5.998;1000;504;519
5.999;1000;507;516
6;1000;510;516
6.001;1000;508;518
6.002;1000;503;519
6.003;1000;501;520
6.004;1000;500;518
6.005;1000;502;518
6.006;1000;503;522
6.007;1000;505;519
6.008;1000;504;522
6.009;1000;504;518
6.01;1000;506;519
6.011;1000;504;522
6.012;1000;504;520
6.013;1000;506;521
6.014;1000;508;519
6.015;1000;510;519
6.016;1000;510;521
6.017;1000;510;521
6.018;1000;509;524
6.019;1000;507;519
6.02;1000;505;521
6.021;1000;503;523
6.022;1000;502;522
6.023;1000;502;526
6.024;1000;503;522
6.025;1000;507;526
6.026;1000;512;526
6.027;1000;512;522
6.028;1000;512;524
6.029;1000;514;523
6.03;1000;517;523
6.031;1000;515;524
6.032;1000;514;524
6.033;1000;512;524
6.034;1000;511;521
6.035;1000;509;523
6.036;1000;508;523
6.037;1000;509;527
6.038;1000;509;527
6.039;1000;511;523
6.04;1000;513;524
6.041;1000;513;527
6.042;1000;512;526
6.043;1000;510;526
6.044;1000;509;521
6.045;1000;508;524
6.046;1000;510;525
6.047;1000;511;526
6.048;1000;513;526
6.049;1000;516;523
6.05;1000;517;524
6.051;1000;519;526
6.052;1000;522;527
6.053;1000;524;527
6.054;1000;525;522
6.055;1000;522;526
6.056;1000;519;526
6.057;1000;519;524
6.058;1000;519;524
6.059;1000;520;519
6.06;1000;519;521
6.061;1000;516;523
6.062;1000;513;524
6.063;1000;511;522
6.064;1000;509;525
6.065;1000;508;522
6.066;1000;506;521
6.067;1000;504;526
6.068;1000;504;524
6.069;1000;504;526
6.07;1000;507;524
6.071;1000;513;522
6.072;1000;518;525
6.073;1000;520;524
6.074;1000;520;525
6.075;1000;520;525
6.076;1000;520;524
6.077;1000;521;524
6.078;1000;522;523
6.079;1000;519;522
6.08;1000;518;522
6.081;1000;515;523
6.082;1000;516;523
6.083;1000;517;522
6.084;1000;515;525
6.085;1000;514;522
6.086;1000;513;521
6.087;1000;514;525
6.088;1000;515;521
6.089;1000;516;523
6.09;1000;518;522
6.091;1000;517;523
6.092;1000;515;521
6.093;1000;514;521
6.094;1000;515;520
6.095;1000;514;519
6.096;1000;512;521
6.097;1000;509;519
6.098;1000;512;519
6.099;1000;513;518
6.1;1000;511;518
6.101;1000;508;520
6.102;1000;512;519
6.103;1000;517;519
6.104;1000;522;521
6.105;1000;525;519
6.106;1000;527;520
6.107;1000;529;519
6.108;1000;529;519
6.109;1000;526;517
6.11;1000;523;517
6.111;1000;522;518
6.112;1000;523;518
6.113;1000;521;518
6.114;1000;520;515
6.115;1000;519;516
6.116;1000;518;517
6.117;1000;516;517
6.118;1000;520;516
6.119;1000;523;520
6.12;1000;523;518
6.121;1000;521;514
6.122;1000;521;519
6.123;1000;521;515
6.124;1000;520;515
6.125;1000;520;514
6.126;1000;520;515
6.127;1000;519;514
6.128;1000;518;515
6.129;1000;517;513
6.13;1000;518;513
6.131;1000;519;514
6.132;1000;519;512
6.133;1000;517;516
6.134;1000;517;511
6.135;1000;515;513
6.136;1000;514;513
6.137;1000;513;512
6.138;1000;511;515
6.139;1000;511;509
6.14;1000;514;511
6.141;1000;516;513
6.142;1000;514;512
6.143;1000;510;512
6.144;1000;510;511
6.145;1000;513;511
6.146;1000;514;512
6.147;1000;513;511
6.148;1000;512;514
6.149;1000;512;511
6.15;1000;511;511
6.151;1000;514;514
6.152;1000;515;510
6.153;1000;514;511
6.154;1000;513;510
6.155;1000;513;509
6.156;1000;515;511
6.157;1000;513;510
6.158;1000;510;510
6.159;1000;505;507
6.16;1000;503;508
6.161;1000;503;509
6.162;1000;504;510
6.163;1000;505;511
6.164;1000;504;506
6.165;1000;504;508
6.166;1000;505;506
6.167;1000;505;512
6.168;1000;507;507
6.169;1000;510;510
6.17;1000;511;508
6.171;1000;511;508
6.172;1000;510;508
6.173;1000;512;508
6.174;1000;509;507
6.175;1000;507;507
6.176;1000;509;508
6.177;1000;510;508
6.178;1000;510;507
6.179;1000;511;509
6.18;1000;513;507
6.181;1000;514;508
6.182;1000;514;507
6.183;1000;513;510
6.184;1000;512;507
6.185;1000;513;507
6.186;1000;516;510
6.187;1000;516;507
6.188;1000;515;508
6.189;1000;513;506
6.19;1000;513;506
6.191;1000;514;508
6.192;1000;513;507
6.193;1000;513;508
6.194;1000;512;504
6.195;1000;512;506
6.196;1000;512;507
6.197;1000;512;508
6.198;1000;512;509
6.199;1000;514;505
6.2;1000;514;506
6.201;1000;512;510
6.202;1000;513;506
6.203;1000;512;509
6.204;1000;511;506
6.205;1000;510;507
6.206;1000;510;508
6.207;1000;511;508
6.208;1000;513;508
6.209;1000;513;506
6.21;1000;514;506
6.211;1000;516;509
6.212;1000;516;509
6.213;1000;516;508
6.214;1000;516;510
6.215;1000;515;507
6.216;1000;515;509
6.217;1000;515;508
6.218;1000;512;509
6.219;1000;510;507
6.22;1000;506;507
6.221;1000;502;508
6.222;1000;503;508
6.223;1000;503;508
6.224;1000;499;504
6.225;1000;497;506
6.226;1000;500;508
6.227;1000;502;508
6.228;1000;496;508
6.229;1000;489;510
6.23;1000;489;509
6.231;1000;490;506
6.232;1000;492;510
6.233;1000;492;508
6.234;1000;492;507
6.235;1000;493;509
6.236;1000;496;508
6.237;1000;500;509
6.238;1000;506;510
6.239;1000;513;507
6.24;1000;520;507
6.241;1000;529;509
6.242;1000;539;509
6.243;1000;551;510
6.244;1000;562;508
6.245;1000;572;507
6.246;1000;583;510
6.247;1000;594;507
6.248;1000;608;511
6.249;1000;625;505
6.25;1000;642;509
6.251;1000;657;509
6.252;1000;671;509
6.253;1000;683;508
6.254;1000;693;508
6.255;1000;703;507
6.256;1000;711;509
6.257;1000;721;510
6.258;1000;731;510
6.259;1000;741;506
6.26;1000;749;508
6.261;1000;754;510
6.262;1000;755;510
6.263;1000;755;509
6.264;1000;752;511
6.265;1000;747;511
6.266;1000;734;508
6.267;1000;715;513
6.268;1000;693;511
6.269;1000;670;510
6.27;1000;643;509
6.271;1000;611;511
6.272;1000;582;511
6.273;1000;556;511
6.274;1000;534;508
6.275;1000;518;510
6.276;1000;505;509
6.277;1000;493;514
6.278;1000;483;514
6.279;1000;478;510
6.28;1000;475;511
6.281;1000;473;513
6.282;1000;472;513
6.283;1000;472;514
6.284;1000;473;513
6.285;1000;472;512
6.286;1000;471;514
6.287;1000;473;514
6.288;1000;476;515
6.289;1000;477;512
6.29;1000;477;513
6.291;1000;479;515
6.292;1000;480;515
6.293;1000;479;514
6.294;1000;477;516
6.295;1000;475;514
6.296;1000;472;515
6.297;1000;470;515
6.298;1000;470;514
6.299;1000;471;513
6.3;1000;470;513
6.301;1000;471;514
6.302;1000;473;515
6.303;1000;472;514
6.304;1000;470;511
6.305;1000;471;513
6.306;1000;476;515
6.307;1000;479;515
6.308;1000;479;514
6.309;1000;478;518
6.31;1000;478;516
6.311;1000;482;512
6.312;1000;486;517
6.313;1000;487;514
6.314;1000;486;515
6.315;1000;486;513
6.316;1000;485;515
6.317;1000;483;514
6.318;1000;482;515
6.319;1000;484;513
6.32;1000;488;513
6.321;1000;493;515
6.322;1000;493;515
6.323;1000;492;516
6.324;1000;489;512
6.325;1000;487;513
6.326;1000;488;515
6.327;1000;489;514
6.328;1000;491;518
6.329;1000;496;514
6.33;1000;498;515
6.331;1000;499;518
6.332;1000;497;515
6.333;1000;494;515
6.334;1000;494;514
6.335;1000;498;515
6.336;1000;499;516
6.337;1000;498;515
6.338;1000;499;517
6.339;1000;499;512
6.34;1000;499;514
6.341;1000;498;516
6.342;1000;496;516
6.343;1000;495;517
6.344;1000;496;511
6.345;1000;498;515
6.346;1000;500;516
6.347;1000;501;512
6.348;1000;499;516
6.349;1000;502;513
6.35;1000;504;517
