time;Sampling Frequency;ECG
0;100;505
0.01;100;503
0.02;100;505
0.03;100;505
0.04;100;507
0.05;100;503
0.06;100;510
0.07;100;507
0.08;100;508
0.09;100;508
0.1;100;509
0.11;100;507
0.12;100;509
0.13;100;509
0.14;100;514
0.15;100;509
0.16;100;506
0.17;100;515
0.18;100;520
0.19;100;508
0.2;100;506
0.21;100;500
0.22;100;502
0.23;100;500
0.24;100;503
0.25;100;498
0.26;100;504
0.27;100;502
0.28;100;505
0.29;100;505
0.3;100;487
0.31;100;495
0.32;100;593
0.33;100;689
0.34;100;659
0.35;100;476
0.36;100;464
0.37;100;458
0.38;100;469
0.39;100;467
0.4;100;480
0.41;100;478
0.42;100;487
0.43;100;488
0.44;100;493
0.45;100;488
0.46;100;499
0.47;100;505
0.48;100;506
0.49;100;510
0.5;100;515
0.51;100;522
0.52;100;527
0.53;100;535
0.54;100;544
0.55;100;552
0.56;100;555
0.57;100;560
0.58;100;559
0.59;100;545
0.6;100;531
0.61;100;510
0.62;100;490
0.63;100;463
0.64;100;454
0.65;100;449
0.66;100;449
0.67;100;451
0.68;100;455
0.69;100;458
0.7;100;467
0.71;100;469
0.72;100;483
0.73;100;488
0.74;100;489
0.75;100;492
0.76;100;496
0.77;100;495
0.78;100;500
0.79;100;501
0.8;100;504
0.81;100;498
0.82;100;501
0.83;100;502
0.84;100;502
0.85;100;498
0.86;100;501
0.87;100;498
0.88;100;507
0.89;100;502
0.9;100;508
0.91;100;508
0.92;100;508
0.93;100;510
0.94;100;519
0.95;100;513
0.96;100;518
0.97;100;519
0.98;100;522
0.99;100;510
1;100;505
1.01;100;504
1.02;100;502
1.03;100;504
1.04;100;509
1.05;100;507
1.06;100;508
1.07;100;513
1.08;100;509
1.09;100;511
1.1;100;499
1.11;100;493
1.12;100;579
1.13;100;679
1.14;100;655
1.15;100;463
1.16;100;481
1.17;100;476
1.18;100;478
1.19;100;484
1.2;100;493
1.21;100;492
1.22;100;500
1.23;100;498
1.24;100;503
1.25;100;505
1.26;100;507
1.27;100;511
1.28;100;516
1.29;100;520
1.3;100;525
1.31;100;528
1.32;100;536
1.33;100;540
1.34;100;550
1.35;100;555
1.36;100;568
1.37;100;565
1.38;100;558
1.39;100;548
1.4;100;529
1.41;100;506
1.42;100;479
1.43;100;464
1.44;100;456
1.45;100;451
1.46;100;449
1.47;100;453
1.48;100;461
1.49;100;460
1.5;100;471
1.51;100;479
1.52;100;485
1.53;100;485
1.54;100;493
1.55;100;494
1.56;100;502
1.57;100;500
1.58;100;505
1.59;100;502
1.6;100;506
1.61;100;503
1.62;100;505
1.63;100;504
1.64;100;506
1.65;100;509
1.66;100;508
1.67;100;506
1.68;100;508
1.69;100;505
1.7;100;511
1.71;100;512
1.72;100;519
1.73;100;514
1.74;100;518
1.75;100;524
1.76;100;528
1.77;100;513
1.78;100;508
1.79;100;504
1.8;100;511
1.81;100;504
1.82;100;508
1.83;100;505
1.84;100;511
1.85;100;509
1.86;100;509
1.87;100;508
1.88;100;487
1.89;100;535
1.9;100;651
1.91;100;696
1.92;100;549
1.93;100;478
1.94;100;485
1.95;100;477
1.96;100;490
1.97;100;487
1.98;100;497
1.99;100;498
2;100;500
2.01;100;507
2.02;100;510
2.03;100;511
2.04;100;514
2.05;100;515
2.06;100;525
2.07;100;524
2.08;100;531
2.09;100;532
2.1;100;540
2.11;100;549
2.12;100;559
2.13;100;561
2.14;100;563
2.15;100;565
2.16;100;563
2.17;100;549
2.18;100;530
2.19;100;504
2.2;100;486
2.21;100;470
2.22;100;465
2.23;100;463
2.24;100;467
2.25;100;468
2.26;100;475
2.27;100;475
2.28;100;489
2.29;100;491
2.3;100;499
2.31;100;500
2.32;100;508
2.33;100;508
2.34;100;512
2.35;100;512
2.36;100;512
2.37;100;512
2.38;100;516
2.39;100;510
2.4;100;513
2.41;100;515
2.42;100;521
2.43;100;517
2.44;100;516
2.45;100;513
2.46;100;516
2.47;100;520
2.48;100;518
2.49;100;519
2.5;100;519
2.51;100;516
2.52;100;520
2.53;100;519
2.54;100;528
2.55;100;523
2.56;100;522
2.57;100;529
2.58;100;527
2.59;100;521
2.6;100;515
2.61;100;508
2.62;100;517
2.63;100;512
2.64;100;513
2.65;100;516
2.66;100;515
2.67;100;512
2.68;100;513
2.69;100;498
2.7;100;495
2.71;100;583
2.72;100;692
2.73;100;694
2.74;100;515
2.75;100;472
2.76;100;467
2.77;100;469
2.78;100;474
2.79;100;483
2.8;100;486
2.81;100;488
2.82;100;492
2.83;100;491
2.84;100;493
2.85;100;503
2.86;100;502
2.87;100;502
2.88;100;508
2.89;100;512
2.9;100;516
2.91;100;522
2.92;100;528
2.93;100;536
2.94;100;544
2.95;100;549
2.96;100;557
2.97;100;548
2.98;100;551
2.99;100;533
3;100;514
3.01;100;486
3.02;100;475
3.03;100;459
3.04;100;457
3.05;100;454
3.06;100;459
3.07;100;460
3.08;100;463
3.09;100;468
3.1;100;476
3.11;100;474
3.12;100;483
3.13;100;481
3.14;100;484
3.15;100;488
3.16;100;488
3.17;100;489
3.18;100;493
3.19;100;491
3.2;100;494
3.21;100;492
3.22;100;492
3.23;100;493
3.24;100;497
3.25;100;496
3.26;100;494
3.27;100;495
3.28;100;494
3.29;100;496
3.3;100;499
3.31;100;496
3.32;100;502
3.33;100;497
3.34;100;500
3.35;100;497
3.36;100;500
3.37;100;494
3.38;100;501
3.39;100;500
3.4;100;501
3.41;100;500
3.42;100;503
3.43;100;497
3.44;100;500
3.45;100;503
3.46;100;502
3.47;100;499
3.48;100;515
3.49;100;510
3.5;100;511
3.51;100;496
3.52;100;495
3.53;100;491
3.54;100;495
3.55;100;493
3.56;100;498
3.57;100;493
3.58;100;500
3.59;100;495
3.6;100;480
3.61;100;477
3.62;100;556
3.63;100;667
3.64;100;697
3.65;100;521
3.66;100;452
3.67;100;441
3.68;100;453
3.69;100;455
3.7;100;467
3.71;100;467
3.72;100;475
3.73;100;477
3.74;100;484
3.75;100;486
3.76;100;497
3.77;100;496
3.78;100;501
3.79;100;498
3.8;100;508
3.81;100;511
3.82;100;517
3.83;100;522
3.84;100;529
3.85;100;538
3.86;100;556
3.87;100;552
3.88;100;557
3.89;100;549
3.9;100;536
3.91;100;519
3.92;100;497
3.93;100;471
3.94;100;467
3.95;100;451
3.96;100;452
3.97;100;454
3.98;100;460
3.99;100;458
4;100;467
4.01;100;469
4.02;100;476
4.03;100;477
4.04;100;487
4.05;100;483
4.06;100;486
4.07;100;492
4.08;100;498
4.09;100;497
4.1;100;503
4.11;100;499
4.12;100;503
4.13;100;504
4.14;100;504
4.15;100;503
4.16;100;504
4.17;100;504
4.18;100;503
4.19;100;505
4.2;100;513
4.21;100;506
4.22;100;512
4.23;100;507
4.24;100;511
4.25;100;510
4.26;100;511
4.27;100;508
4.28;100;510
4.29;100;508
4.3;100;511
4.31;100;508
4.32;100;509
4.33;100;511
4.34;100;514
4.35;100;513
4.36;100;516
4.37;100;507
4.38;100;515
4.39;100;510
4.4;100;513
4.41;100;509
4.42;100;515
4.43;100;513
4.44;100;507
4.45;100;513
4.46;100;525
4.47;100;515
4.48;100;511
4.49;100;499
4.5;100;507
4.51;100;504
4.52;100;507
4.53;100;502
4.54;100;508
4.55;100;507
4.56;100;511
4.57;100;503
4.58;100;480
4.59;100;530
4.6;100;653
4.61;100;708
4.62;100;599
4.63;100;465
4.64;100;461
4.65;100;462
4.66;100;471
4.67;100;476
4.68;100;482
4.69;100;485
4.7;100;492
4.71;100;493
4.72;100;498
4.73;100;500
4.74;100;510
4.75;100;504
4.76;100;511
4.77;100;512
4.78;100;519
4.79;100;521
4.8;100;528
4.81;100;536
4.82;100;544
4.83;100;555
4.84;100;560
4.85;100;559
4.86;100;559
4.87;100;550
4.88;100;536
4.89;100;512
4.9;100;487
4.91;100;466
4.92;100;455
4.93;100;456
4.94;100;457
4.95;100;456
4.96;100;464
4.97;100;466
4.98;100;469
4.99;100;473
5;100;483
5.01;100;487
5.02;100;489
5.03;100;497
5.04;100;500
5.05;100;499
5.06;100;503
5.07;100;504
5.08;100;504
5.09;100;505
5.1;100;511
5.11;100;507
5.12;100;509
5.13;100;508
5.14;100;507
5.15;100;509
5.16;100;509
5.17;100;508
5.18;100;513
5.19;100;508
5.2;100;508
5.21;100;513
5.22;100;512
5.23;100;506
5.24;100;514
5.25;100;509
5.26;100;511
5.27;100;511
5.28;100;511
5.29;100;511
5.3;100;516
5.31;100;512
5.32;100;523
5.33;100;515
5.34;100;520
5.35;100;522
5.36;100;525
5.37;100;519
5.38;100;513
5.39;100;509
5.4;100;511
5.41;100;512
5.42;100;515
5.43;100;512
5.44;100;514
5.45;100;512
5.46;100;514
5.47;100;497
5.48;100;496
5.49;100;581
5.5;100;682
5.51;100;681
5.52;100;483
5.53;100;470
5.54;100;469
5.55;100;471
5.56;100;477
5.57;100;483
5.58;100;488
5.59;100;485
5.6;100;492
5.61;100;495
5.62;100;502
5.63;100;504
5.64;100;510
5.65;100;512
5.66;100;515
5.67;100;517
5.68;100;529
5.69;100;528
5.7;100;543
5.71;100;545
5.72;100;557
5.73;100;560
5.74;100;566
5.75;100;559
5.76;100;554
5.77;100;541
5.78;100;517
5.79;100;491
5.8;100;473
5.81;100;458
5.82;100;453
5.83;100;452
5.84;100;454
5.85;100;454
5.86;100;465
5.87;100;469
5.88;100;478
5.89;100;479
5.9;100;489
5.91;100;488
5.92;100;493
5.93;100;495
5.94;100;500
5.95;100;503
5.96;100;503
5.97;100;501
5.98;100;508
5.99;100;505
6;100;508
6.01;100;502
6.02;100;508
6.03;100;509
6.04;100;509
6.05;100;504
6.06;100;507
6.07;100;506
6.08;100;513
6.09;100;511
6.1;100;512
6.11;100;517
6.12;100;517
6.13;100;516
6.14;100;528
6.15;100;518
6.16;100;512
6.17;100;504
6.18;100;506
6.19;100;505
6.2;100;511
6.21;100;504
6.22;100;511
6.23;100;506
6.24;100;506
6.25;100;507
6.26;100;492
6.27;100;499
6.28;100;592
6.29;100;679
6.3;100;639
6.31;100;467
6.32;100;476
6.33;100;472
6.34;100;478
6.35;100;480
6.36;100;486
6.37;100;489
6.38;100;496
6.39;100;498
6.4;100;502
6.41;100;503
6.42;100;507
6.43;100;507
6.44;100;512
6.45;100;516
6.46;100;521
6.47;100;524
6.48;100;535
6.49;100;541
6.5;100;550
6.51;100;554
6.52;100;563
6.53;100;563
6.54;100;561
6.55;100;549
6.56;100;536
6.57;100;504
6.58;100;486
6.59;100;467
6.6;100;460
6.61;100;457
6.62;100;455
6.63;100;455
6.64;100;468
6.65;100;469
6.66;100;475
6.67;100;478
6.68;100;486
6.69;100;489
6.7;100;496
6.71;100;501
6.72;100;505
6.73;100;501
6.74;100;506
6.75;100;508
6.76;100;506
6.77;100;503
6.78;100;506
6.79;100;503
6.8;100;512
6.81;100;506
6.82;100;513
6.83;100;508
6.84;100;511
6.85;100;508
6.86;100;516
6.87;100;511
6.88;100;514
6.89;100;518
6.9;100;518
6.91;100;513
6.92;100;525
6.93;100;525
6.94;100;516
6.95;100;511
6.96;100;506
6.97;100;506
6.98;100;510
6.99;100;510
7;100;510
7.01;100;508
7.02;100;512
7.03;100;511
7.04;100;496
7.05;100;487
7.06;100;570
7.07;100;675
7.08;100;686
7.09;100;492
7.1;100;476
7.11;100;470
7.12;100;473
7.13;100;476
7.14;100;483
7.15;100;484
7.16;100;494
7.17;100;494
7.18;100;495
7.19;100;500
7.2;100;503
7.21;100;503
7.22;100;510
7.23;100;506
7.24;100;517
7.25;100;521
7.26;100;526
7.27;100;531
7.28;100;538
7.29;100;545
7.3;100;557
7.31;100;554
7.32;100;559
7.33;100;550
7.34;100;537
7.35;100;515
7.36;100;490
7.37;100;474
7.38;100;464
7.39;100;453
7.4;100;457
7.41;100;460
7.42;100;464
7.43;100;467
7.44;100;474
7.45;100;479
7.46;100;482
7.47;100;484
7.48;100;488
7.49;100;499
7.5;100;499
7.51;100;502
7.52;100;501
7.53;100;499
7.54;100;500
7.55;100;505
7.56;100;504
7.57;100;497
7.58;100;506
7.59;100;499
7.6;100;505
7.61;100;500
7.62;100;508
7.63;100;505
7.64;100;508
7.65;100;504
7.66;100;512
7.67;100;507
7.68;100;505
7.69;100;506
7.7;100;505
7.71;100;509
7.72;100;510
7.73;100;509
7.74;100;512
7.75;100;507
7.76;100;515
7.77;100;513
7.78;100;508
7.79;100;512
7.8;100;522
7.81;100;515
7.82;100;513
7.83;100;501
7.84;100;507
7.85;100;501
7.86;100;507
7.87;100;502
7.88;100;505
7.89;100;509
7.9;100;509
7.91;100;485
7.92;100;503
7.93;100;608
7.94;100;700
7.95;100;665
7.96;100;491
7.97;100;456
7.98;100;457
7.99;100;466
8;100;470
8.01;100;469
8.02;100;476
8.03;100;485
8.04;100;489
8.05;100;491
8.06;100;499
8.07;100;498
8.08;100;503
8.09;100;501
8.1;100;511
8.11;100;512
8.12;100;519
8.13;100;524
8.14;100;535
8.15;100;540
8.16;100;548
8.17;100;556
8.18;100;560
8.19;100;555
8.2;100;553
8.21;100;532
8.22;100;515
8.23;100;487
8.24;100;472
8.25;100;456
8.26;100;453
8.27;100;453
8.28;100;459
8.29;100;456
8.3;100;468
8.31;100;470
8.32;100;481
8.33;100;476
8.34;100;485
8.35;100;483
8.36;100;491
8.37;100;493
8.38;100;491
8.39;100;497
8.4;100;500
8.41;100;497
8.42;100;499
8.43;100;499
8.44;100;501
8.45;100;500
8.46;100;503
8.47;100;501
8.48;100;505
8.49;100;501
8.5;100;507
8.51;100;503
8.52;100;511
8.53;100;503
8.54;100;506
8.55;100;507
8.56;100;510
8.57;100;509
8.58;100;509
8.59;100;509
8.6;100;511
8.61;100;508
8.62;100;510
8.63;100;509
8.64;100;510
8.65;100;508
8.66;100;513
8.67;100;510
8.68;100;515
8.69;100;519
8.7;100;508
8.71;100;513
8.72;100;525
8.73;100;515
8.74;100;515
8.75;100;505
8.76;100;500
8.77;100;500
8.78;100;507
8.79;100;504
8.8;100;504
8.81;100;503
8.82;100;507
8.83;100;498
8.84;100;475
8.85;100;529
8.86;100;648
8.87;100;710
8.88;100;609
8.89;100;467
8.9;100;456
8.91;100;452
8.92;100;466
8.93;100;472
8.94;100;480
8.95;100;481
8.96;100;487
8.97;100;490
8.98;100;495
8.99;100;493
9;100;497
9.01;100;506
9.02;100;506
9.03;100;511
9.04;100;518
9.05;100;518
9.06;100;529
9.07;100;534
9.08;100;547
9.09;100;548
9.1;100;560
9.11;100;559
9.12;100;559
9.13;100;548
9.14;100;530
9.15;100;508
9.16;100;490
9.17;100;467
9.18;100;458
9.19;100;451
9.2;100;452
9.21;100;457
9.22;100;464
9.23;100;464
9.24;100;471
9.25;100;472
9.26;100;483
9.27;100;483
9.28;100;490
9.29;100;491
9.3;100;495
9.31;100;496
9.32;100;497
9.33;100;496
9.34;100;501
9.35;100;501
9.36;100;502
9.37;100;500
9.38;100;505
9.39;100;507
9.4;100;504
9.41;100;505
9.42;100;509
9.43;100;505
9.44;100;510
9.45;100;505
9.46;100;507
9.47;100;504
9.48;100;515
9.49;100;510
9.5;100;511
9.51;100;508
9.52;100;513
9.53;100;510
9.54;100;510
9.55;100;512
9.56;100;509
9.57;100;511
9.58;100;510
9.59;100;507
9.6;100;515
9.61;100;514
9.62;100;514
9.63;100;515
9.64;100;524
9.65;100;509
9.66;100;514
9.67;100;523
9.68;100;523
9.69;100;511
9.7;100;510
9.71;100;504
9.72;100;508
9.73;100;504
9.74;100;508
9.75;100;506
9.76;100;509
9.77;100;507
9.78;100;507
9.79;100;478
9.8;100;529
9.81;100;636
9.82;100;714
9.83;100;600
9.84;100;472
9.85;100;466
9.86;100;467
9.87;100;473
9.88;100;481
9.89;100;481
9.9;100;492
9.91;100;493
9.92;100;497
9.93;100;497
9.94;100;508
9.95;100;509
9.96;100;515
9.97;100;514
9.98;100;519
9.99;100;523
10;100;530
10.01;100;532
10.02;100;544
10.03;100;551
10.04;100;552
10.05;100;567
10.06;100;571
10.07;100;561
10.08;100;552
10.09;100;532
10.1;100;518
10.11;100;489
10.12;100;472
10.13;100;463
10.14;100;458
10.15;100;453
10.16;100;456
10.17;100;463
10.18;100;472
10.19;100;472
10.2;100;480
10.21;100;483
10.22;100;490
10.23;100;488
10.24;100;502
10.25;100;495
10.26;100;503
10.27;100;503
10.28;100;507
10.29;100;501
10.3;100;508
10.31;100;499
10.32;100;508
10.33;100;504
10.34;100;505
10.35;100;509
10.36;100;508
10.37;100;507
10.38;100;510
10.39;100;509
10.4;100;508
10.41;100;507
10.42;100;511
10.43;100;511
10.44;100;514
10.45;100;508
10.46;100;509
10.47;100;518
10.48;100;519
10.49;100;506
10.5;100;504
10.51;100;501
10.52;100;507
10.53;100;505
10.54;100;508
10.55;100;504
10.56;100;508
10.57;100;505
10.58;100;512
10.59;100;507
10.6;100;487
10.61;100;526
10.62;100;636
10.63;100;695
10.64;100;544
10.65;100;461
10.66;100;479
10.67;100;470
10.68;100;481
10.69;100;484
10.7;100;489
10.71;100;492
10.72;100;495
10.73;100;495
10.74;100;499
10.75;100;502
10.76;100;508
10.77;100;504
10.78;100;518
10.79;100;516
10.8;100;527
10.81;100;526
10.82;100;531
10.83;100;536
10.84;100;552
10.85;100;557
10.86;100;562
10.87;100;560
10.88;100;556
10.89;100;542
10.9;100;523
10.91;100;492
10.92;100;476
10.93;100;463
10.94;100;452
10.95;100;447
10.96;100;448
10.97;100;459
10.98;100;464
10.99;100;466
11;100;474
11.01;100;481
11.02;100;487
11.03;100;487
11.04;100;499
11.05;100;501
11.06;100;505
11.07;100;503
11.08;100;511
11.09;100;504
11.1;100;507
11.11;100;506
11.12;100;510
11.13;100;504
11.14;100;507
11.15;100;504
11.16;100;509
11.17;100;506
11.18;100;507
11.19;100;506
11.2;100;515
11.21;100;516
11.22;100;515
11.23;100;518
11.24;100;524
11.25;100;517
11.26;100;510
11.27;100;497
11.28;100;504
11.29;100;504
11.3;100;507
11.31;100;504
11.32;100;503
11.33;100;504
11.34;100;511
11.35;100;505
11.36;100;497
11.37;100;478
11.38;100;555
11.39;100;655
11.4;100;664
11.41;100;487
11.42;100;472
11.43;100;466
11.44;100;469
11.45;100;472
11.46;100;478
11.47;100;478
11.48;100;488
11.49;100;485
11.5;100;493
11.51;100;497
11.52;100;500
11.53;100;501
11.54;100;505
11.55;100;512
11.56;100;519
11.57;100;523
11.58;100;536
11.59;100;538
11.6;100;549
11.61;100;560
11.62;100;563
11.63;100;562
11.64;100;563
11.65;100;551
11.66;100;539
11.67;100;512
11.68;100;492
11.69;100;476
11.7;100;469
11.71;100;461
11.72;100;464
11.73;100;463
11.74;100;471
11.75;100;472
11.76;100;483
11.77;100;483
11.78;100;488
11.79;100;485
11.8;100;499
11.81;100;494
11.82;100;497
11.83;100;502
11.84;100;508
11.85;100;502
11.86;100;509
11.87;100;502
11.88;100;510
11.89;100;505
11.9;100;504
11.91;100;499
11.92;100;507
11.93;100;505
11.94;100;501
11.95;100;508
11.96;100;506
11.97;100;507
11.98;100;513
11.99;100;512
12;100;516
12.01;100;516
12.02;100;515
12.03;100;518
12.04;100;527
12.05;100;523
12.06;100;515
12.07;100;509
12.08;100;512
12.09;100;507
12.1;100;512
12.11;100;508
12.12;100;512
12.13;100;509
12.14;100;515
12.15;100;507
12.16;100;491
12.17;100;503
12.18;100;604
12.19;100;685
12.2;100;645
12.21;100;479
12.22;100;469
12.23;100;462
12.24;100;471
12.25;100;470
12.26;100;479
12.27;100;481
12.28;100;484
12.29;100;487
12.3;100;496
12.31;100;493
12.32;100;504
12.33;100;504
12.34;100;511
12.35;100;512
12.36;100;519
12.37;100;524
12.38;100;534
12.39;100;538
12.4;100;551
12.41;100;554
12.42;100;558
12.43;100;565
12.44;100;560
12.45;100;550
12.46;100;540
12.47;100;512
12.48;100;491
12.49;100;476
12.5;100;467
12.51;100;459
12.52;100;461
12.53;100;460
12.54;100;468
12.55;100;466
12.56;100;472
12.57;100;477
12.58;100;483
12.59;100;479
12.6;100;485
12.61;100;490
12.62;100;491
12.63;100;495
12.64;100;496
12.65;100;499
12.66;100;499
12.67;100;503
12.68;100;501
12.69;100;504
12.7;100;509
12.71;100;507
12.72;100;504
12.73;100;508
12.74;100;512
12.75;100;507
12.76;100;509
12.77;100;509
12.78;100;504
12.79;100;507
12.8;100;508
12.81;100;504
12.82;100;510
12.83;100;509
12.84;100;509
12.85;100;510
12.86;100;511
12.87;100;505
12.88;100;512
12.89;100;508
12.9;100;511
12.91;100;503
12.92;100;510
12.93;100;515
12.94;100;518
12.95;100;510
12.96;100;514
12.97;100;517
12.98;100;515
12.99;100;511
13;100;507
13.01;100;503
13.02;100;508
13.03;100;504
13.04;100;512
13.05;100;508
13.06;100;513
13.07;100;510
13.08;100;511
13.09;100;493
13.1;100;497
13.11;100;583
13.12;100;686
13.13;100;679
13.14;100;511
13.15;100;461
13.16;100;455
13.17;100;465
13.18;100;471
13.19;100;475
13.2;100;479
13.21;100;483
13.22;100;483
13.23;100;489
13.24;100;490
13.25;100;492
13.26;100;499
13.27;100;499
13.28;100;504
13.29;100;499
13.3;100;514
13.31;100;517
13.32;100;529
13.33;100;531
13.34;100;543
13.35;100;548
13.36;100;562
13.37;100;553
13.38;100;555
13.39;100;542
13.4;100;524
13.41;100;502
13.42;100;484
13.43;100;467
13.44;100;457
13.45;100;452
13.46;100;455
13.47;100;457
13.48;100;467
13.49;100;466
13.5;100;476
13.51;100;480
13.52;100;485
13.53;100;485
13.54;100;491
13.55;100;487
13.56;100;489
13.57;100;494
13.58;100;496
13.59;100;498
13.6;100;500
13.61;100;499
13.62;100;504
13.63;100;499
13.64;100;502
13.65;100;496
13.66;100;508
13.67;100;503
13.68;100;504
13.69;100;500
13.7;100;506
13.71;100;508
13.72;100;516
13.73;100;511
13.74;100;511
13.75;100;509
13.76;100;507
13.77;100;509
13.78;100;510
13.79;100;502
13.8;100;511
13.81;100;508
13.82;100;512
13.83;100;509
13.84;100;505
13.85;100;514
13.86;100;515
13.87;100;509
13.88;100;518
13.89;100;509
13.9;100;515
13.91;100;515
13.92;100;521
13.93;100;519
13.94;100;516
13.95;100;516
13.96;100;528
13.97;100;513
13.98;100;508
13.99;100;502
14;100;505
14.01;100;503
14.02;100;499
14.03;100;503
14.04;100;505
14.05;100;502
14.06;100;505
14.07;100;495
14.08;100;478
14.09;100;496
14.1;100;617
14.11;100;699
14.12;100;653
14.13;100;489
14.14;100;458
14.15;100;455
14.16;100;465
14.17;100;470
14.18;100;477
14.19;100;476
14.2;100;489
14.21;100;490
14.22;100;493
14.23;100;497
14.24;100;503
14.25;100;504
14.26;100;504
14.27;100;511
14.28;100;521
14.29;100;522
14.3;100;520
14.31;100;531
14.32;100;541
14.33;100;547
14.34;100;557
14.35;100;555
14.36;100;554
14.37;100;544
14.38;100;536
14.39;100;511
14.4;100;489
14.41;100;469
14.42;100;454
14.43;100;448
14.44;100;449
14.45;100;447
14.46;100;452
14.47;100;456
14.48;100;464
14.49;100;467
14.5;100;469
14.51;100;473
14.52;100;485
14.53;100;487
14.54;100;494
14.55;100;489
14.56;100;499
14.57;100;494
14.58;100;499
14.59;100;496
14.6;100;504
14.61;100;502
14.62;100;511
14.63;100;505
14.64;100;511
14.65;100;512
14.66;100;513
14.67;100;512
14.68;100;515
14.69;100;512
14.7;100;514
14.71;100;509
14.72;100;516
14.73;100;514
14.74;100;516
14.75;100;512
14.76;100;516
14.77;100;516
14.78;100;511
14.79;100;512
14.8;100;514
14.81;100;511
14.82;100;513
14.83;100;512
14.84;100;517
14.85;100;511
14.86;100;511
14.87;100;514
14.88;100;519
14.89;100;514
14.9;100;513
14.91;100;519
14.92;100;521
14.93;100;508
14.94;100;507
14.95;100;500
14.96;100;505
14.97;100;500
14.98;100;508
14.99;100;505
15;100;506
15.01;100;505
15.02;100;507
15.03;100;488
15.04;100;501
15.05;100;594
15.06;100;699
15.07;100;701
15.08;100;502
15.09;100;459
15.1;100;458
15.11;100;461
15.12;100;472
15.13;100;472
15.14;100;487
15.15;100;490
15.16;100;498
15.17;100;493
15.18;100;504
15.19;100;504
15.2;100;511
15.21;100;515
15.22;100;522
15.23;100;516
15.24;100;531
15.25;100;536
15.26;100;545
15.27;100;551
15.28;100;565
15.29;100;567
15.3;100;571
15.31;100;566
15.32;100;567
15.33;100;546
15.34;100;527
15.35;100;498
15.36;100;481
15.37;100;461
15.38;100;453
15.39;100;450
15.4;100;455
15.41;100;459
15.42;100;466
15.43;100;464
15.44;100;472
15.45;100;478
15.46;100;485
15.47;100;485
15.48;100;496
15.49;100;494
15.5;100;499
15.51;100;499
15.52;100;507
15.53;100;499
15.54;100;502
15.55;100;503
15.56;100;513
15.57;100;511
15.58;100;507
15.59;100;504
15.6;100;509
15.61;100;506
15.62;100;510
15.63;100;508
15.64;100;511
15.65;100;509
15.66;100;512
15.67;100;511
15.68;100;512
15.69;100;508
15.7;100;511
15.71;100;510
15.72;100;513
15.73;100;514
15.74;100;515
15.75;100;514
15.76;100;517
15.77;100;512
15.78;100;513
15.79;100;512
15.8;100;516
15.81;100;513
15.82;100;516
15.83;100;511
15.84;100;521
15.85;100;510
15.86;100;512
15.87;100;517
15.88;100;522
15.89;100;507
15.9;100;501
15.91;100;500
15.92;100;505
15.93;100;500
15.94;100;502
15.95;100;503
15.96;100;502
15.97;100;504
15.98;100;498
15.99;100;472
16;100;535
16.01;100;644
16.02;100;705
16.03;100;548
16.04;100;465
16.05;100;458
16.06;100;462
16.07;100;471
16.08;100;477
16.09;100;480
16.1;100;490
16.11;100;489
16.12;100;498
16.13;100;499
16.14;100;500
16.15;100;505
16.16;100;515
16.17;100;513
16.18;100;517
16.19;100;521
16.2;100;530
16.21;100;535
16.22;100;543
16.23;100;545
16.24;100;555
16.25;100;557
16.26;100;558
16.27;100;548
16.28;100;543
16.29;100;524
16.3;100;504
16.31;100;473
16.32;100;457
16.33;100;449
16.34;100;445
16.35;100;441
16.36;100;447
16.37;100;452
16.38;100;458
16.39;100;459
16.4;100;472
16.41;100;475
16.42;100;489
16.43;100;487
16.44;100;493
16.45;100;495
16.46;100;500
16.47;100;503
16.48;100;498
16.49;100;502
16.5;100;500
16.51;100;495
16.52;100;501
16.53;100;497
16.54;100;500
16.55;100;499
16.56;100;500
16.57;100;501
16.58;100;500
16.59;100;501
16.6;100;504
16.61;100;501
16.62;100;507
16.63;100;504
16.64;100;508
16.65;100;510
16.66;100;510
16.67;100;520
16.68;100;518
16.69;100;517
16.7;100;525
16.71;100;518
16.72;100;508
16.73;100;501
16.74;100;509
16.75;100;504
16.76;100;511
16.77;100;504
16.78;100;509
16.79;100;512
16.8;100;514
16.81;100;509
16.82;100;486
16.83;100;539
16.84;100;651
16.85;100;679
16.86;100;496
16.87;100;462
16.88;100;475
16.89;100;468
16.9;100;483
16.91;100;490
16.92;100;494
16.93;100;492
16.94;100;503
16.95;100;503
16.96;100;505
16.97;100;506
16.98;100;511
16.99;100;512
17;100;515
17.01;100;521
17.02;100;526
17.03;100;527
17.04;100;538
17.05;100;540
17.06;100;555
17.07;100;560
17.08;100;566
17.09;100;560
17.1;100;554
17.11;100;541
17.12;100;519
17.13;100;485
17.14;100;471
17.15;100;449
17.16;100;450
17.17;100;440
17.18;100;443
17.19;100;449
17.2;100;461
17.21;100;462
17.22;100;471
17.23;100;477
17.24;100;481
17.25;100;489
17.26;100;496
17.27;100;499
17.28;100;504
17.29;100;502
17.3;100;503
17.31;100;501
17.32;100;503
17.33;100;498
17.34;100;505
17.35;100;502
17.36;100;504
17.37;100;501
17.38;100;505
17.39;100;509
17.4;100;505
17.41;100;508
17.42;100;513
17.43;100;513
17.44;100;514
17.45;100;513
17.46;100;525
17.47;100;515
17.48;100;506
17.49;100;496
17.5;100;504
17.51;100;500
17.52;100;503
17.53;100;500
17.54;100;503
17.55;100;503
17.56;100;506
17.57;100;495
17.58;100;480
17.59;100;541
17.6;100;653
17.61;100;678
17.62;100;504
17.63;100;466
17.64;100;477
17.65;100;470
17.66;100;479
17.67;100;485
17.68;100;488
17.69;100;489
17.7;100;498
17.71;100;496
17.72;100;504
17.73;100;505
17.74;100;511
17.75;100;511
17.76;100;516
17.77;100;520
17.78;100;524
17.79;100;536
17.8;100;539
17.81;100;546
17.82;100;554
17.83;100;558
17.84;100;566
17.85;100;558
17.86;100;554
17.87;100;534
17.88;100;516
17.89;100;494
17.9;100;477
17.91;100;462
17.92;100;457
17.93;100;455
17.94;100;460
17.95;100;461
17.96;100;471
17.97;100;474
17.98;100;478
17.99;100;481
18;100;486
18.01;100;488
18.02;100;492
18.03;100;497
18.04;100;503
18.05;100;496
18.06;100;503
18.07;100;502
18.08;100;502
18.09;100;501
18.1;100;503
18.11;100;501
18.12;100;507
18.13;100;502
18.14;100;506
18.15;100;508
18.16;100;508
18.17;100;512
18.18;100;515
18.19;100;508
18.2;100;520
18.21;100;525
18.22;100;520
18.23;100;512
18.24;100;508
18.25;100;506
18.26;100;513
18.27;100;510
18.28;100;513
18.29;100;509
18.3;100;512
18.31;100;507
18.32;100;509
18.33;100;491
18.34;100;556
18.35;100;665
18.36;100;703
18.37;100;539
18.38;100;488
18.39;100;483
18.4;100;480
18.41;100;493
18.42;100;495
18.43;100;501
18.44;100;503
18.45;100;501
18.46;100;510
18.47;100;511
18.48;100;513
18.49;100;511
18.5;100;516
18.51;100;516
18.52;100;522
18.53;100;522
18.54;100;530
18.55;100;533
18.56;100;550
18.57;100;553
18.58;100;561
18.59;100;565
18.6;100;569
18.61;100;557
18.62;100;553
18.63;100;528
18.64;100;505
18.65;100;486
18.66;100;475
18.67;100;465
18.68;100;464
18.69;100;466
18.7;100;472
18.71;100;473
18.72;100;475
18.73;100;478
18.74;100;486
18.75;100;486
18.76;100;494
18.77;100;497
18.78;100;499
18.79;100;497
18.8;100;503
18.81;100;506
18.82;100;508
18.83;100;508
18.84;100;512
18.85;100;510
18.86;100;511
18.87;100;507
18.88;100;503
18.89;100;509
18.9;100;508
18.91;100;508
18.92;100;510
18.93;100;508
18.94;100;510
18.95;100;509
18.96;100;514
18.97;100;518
18.98;100;516
18.99;100;516
19;100;531
19.01;100;523
19.02;100;519
19.03;100;509
19.04;100;511
19.05;100;508
19.06;100;511
19.07;100;508
19.08;100;507
19.09;100;507
19.1;100;510
19.11;100;500
19.12;100;487
19.13;100;553
19.14;100;668
19.15;100;703
19.16;100;556
19.17;100;471
19.18;100;462
19.19;100;462
19.2;100;477
19.21;100;480
19.22;100;488
19.23;100;488
19.24;100;496
19.25;100;497
19.26;100;503
19.27;100;500
19.28;100;504
19.29;100;502
19.3;100;508
19.31;100;508
19.32;100;513
19.33;100;517
19.34;100;531
19.35;100;535
19.36;100;547
19.37;100;551
19.38;100;552
19.39;100;551
19.4;100;549
19.41;100;538
19.42;100;521
19.43;100;501
19.44;100;482
19.45;100;472
19.46;100;468
19.47;100;457
19.48;100;468
19.49;100;465
19.5;100;473
19.51;100;473
19.52;100;479
19.53;100;483
19.54;100;488
19.55;100;492
19.56;100;496
19.57;100;495
19.58;100;499
19.59;100;495
19.6;100;502
19.61;100;501
19.62;100;504
19.63;100;502
19.64;100;505
19.65;100;502
19.66;100;505
19.67;100;499
19.68;100;503
19.69;100;503
19.7;100;509
19.71;100;508
19.72;100;505
19.73;100;506
19.74;100;511
19.75;100;507
19.76;100;511
19.77;100;512
19.78;100;508
19.79;100;508
19.8;100;512
19.81;100;508
19.82;100;508
19.83;100;511
19.84;100;519
19.85;100;511
19.86;100;506
19.87;100;499
19.88;100;501
19.89;100;498
19.9;100;499
19.91;100;499
19.92;100;505
19.93;100;502
19.94;100;502
19.95;100;484
19.96;100;485
19.97;100;580
19.98;100;686
19.99;100;698
20;100;510
20.01;100;457
20.02;100;452
20.03;100;459
20.04;100;467
20.05;100;469
20.06;100;479
20.07;100;481
20.08;100;485
20.09;100;487
20.1;100;493
20.11;100;493
20.12;100;499
20.13;100;496
20.14;100;499
20.15;100;504
20.16;100;508
20.17;100;508
20.18;100;526
20.19;100;528
20.2;100;541
20.21;100;549
20.22;100;555
20.23;100;552
20.24;100;548
20.25;100;530
20.26;100;516
20.27;100;486
20.28;100;471
20.29;100;454
20.3;100;449
20.31;100;445
20.32;100;445
20.33;100;451
20.34;100;454
20.35;100;457
20.36;100;460
20.37;100;462
20.38;100;471
20.39;100;476
20.4;100;480
20.41;100;480
20.42;100;485
20.43;100;478
20.44;100;489
20.45;100;485
20.46;100;491
20.47;100;490
20.48;100;494
20.49;100;496
20.5;100;496
20.51;100;497
20.52;100;497
20.53;100;498
20.54;100;501
20.55;100;504
20.56;100;507
20.57;100;505
20.58;100;505
20.59;100;503
20.6;100;505
20.61;100;504
20.62;100;499
20.63;100;500
20.64;100;506
20.65;100;503
20.66;100;509
20.67;100;508
20.68;100;509
20.69;100;508
20.7;100;512
20.71;100;515
20.72;100;516
20.73;100;509
20.74;100;521
20.75;100;520
20.76;100;515
20.77;100;504
20.78;100;504
20.79;100;498
20.8;100;497
20.81;100;499
20.82;100;505
20.83;100;495
20.84;100;502
20.85;100;501
20.86;100;499
20.87;100;472
20.88;100;505
20.89;100;622
20.9;100;703
20.91;100;641
20.92;100;472
20.93;100;451
20.94;100;456
20.95;100;462
20.96;100;467
20.97;100;475
20.98;100;483
20.99;100;487
21;100;496
21.01;100;496
21.02;100;504
21.03;100;501
21.04;100;508
21.05;100;508
21.06;100;516
21.07;100;514
21.08;100;523
21.09;100;527
21.1;100;535
21.11;100;539
21.12;100;559
21.13;100;560
21.14;100;564
21.15;100;556
21.16;100;551
21.17;100;532
21.18;100;508
21.19;100;484
21.2;100;465
21.21;100;447
21.22;100;448
21.23;100;445
21.24;100;453
21.25;100;454
21.26;100;462
21.27;100;463
21.28;100;470
21.29;100;472
21.3;100;480
21.31;100;487
21.32;100;492
21.33;100;494
21.34;100;502
21.35;100;496
21.36;100;501
21.37;100;504
21.38;100;504
21.39;100;502
21.4;100;502
21.41;100;501
21.42;100;504
21.43;100;501
21.44;100;505
21.45;100;508
21.46;100;509
21.47;100;507
21.48;100;512
21.49;100;510
21.5;100;514
21.51;100;516
21.52;100;518
21.53;100;515
21.54;100;520
21.55;100;517
21.56;100;520
21.57;100;515
21.58;100;520
21.59;100;518
21.6;100;519
21.61;100;518
21.62;100;520
21.63;100;518
21.64;100;522
21.65;100;520
21.66;100;525
21.67;100;516
21.68;100;517
21.69;100;523
21.7;100;523
21.71;100;512
21.72;100;504
21.73;100;500
21.74;100;501
21.75;100;504
21.76;100;505
21.77;100;505
21.78;100;507
21.79;100;509
21.8;100;508
21.81;100;504
21.82;100;487
21.83;100;490
21.84;100;591
21.85;100;697
21.86;100;687
21.87;100;496
21.88;100;464
21.89;100;461
21.9;100;472
21.91;100;473
21.92;100;477
21.93;100;482
21.94;100;487
21.95;100;488
21.96;100;488
21.97;100;493
21.98;100;500
21.99;100;503
22;100;507
22.01;100;509
22.02;100;513
22.03;100;514
22.04;100;525
22.05;100;530
22.06;100;546
22.07;100;556
22.08;100;564
22.09;100;566
22.1;100;566
22.11;100;558
22.12;100;546
22.13;100;525
22.14;100;502
22.15;100;473
22.16;100;467
22.17;100;459
22.18;100;458
22.19;100;458
22.2;100;460
22.21;100;466
22.22;100;474
22.23;100;475
22.24;100;484
22.25;100;481
22.26;100;490
22.27;100;491
22.28;100;498
22.29;100;499
22.3;100;503
22.31;100;502
22.32;100;508
22.33;100;501
22.34;100;507
22.35;100;501
22.36;100;503
22.37;100;499
22.38;100;505
22.39;100;504
22.4;100;507
22.41;100;508
22.42;100;511
22.43;100;503
22.44;100;511
22.45;100;505
22.46;100;508
22.47;100;504
22.48;100;508
22.49;100;506
22.5;100;508
22.51;100;505
22.52;100;510
22.53;100;509
22.54;100;509
22.55;100;511
22.56;100;511
22.57;100;512
22.58;100;519
22.59;100;515
22.6;100;518
22.61;100;521
22.62;100;522
22.63;100;519
22.64;100;512
22.65;100;507
22.66;100;514
22.67;100;513
22.68;100;514
22.69;100;511
22.7;100;514
22.71;100;515
22.72;100;515
22.73;100;498
22.74;100;487
22.75;100;557
22.76;100;672
22.77;100;707
22.78;100;504
22.79;100;468
22.8;100;471
22.81;100;460
22.82;100;479
22.83;100;481
22.84;100;487
22.85;100;487
22.86;100;492
22.87;100;498
22.88;100;505
22.89;100;507
22.9;100;511
22.91;100;510
22.92;100;513
22.93;100;517
22.94;100;524
22.95;100;525
22.96;100;534
22.97;100;537
22.98;100;549
22.99;100;555
23;100;558
23.01;100;561
23.02;100;548
23.03;100;544
23.04;100;521
23.05;100;497
23.06;100;476
23.07;100;459
23.08;100;448
23.09;100;445
23.1;100;450
23.11;100;451
23.12;100;458
23.13;100;460
23.14;100;469
23.15;100;475
23.16;100;481
23.17;100;484
23.18;100;492
23.19;100;492
23.2;100;497
23.21;100;498
23.22;100;497
23.23;100;505
23.24;100;508
23.25;100;504
23.26;100;504
23.27;100;508
23.28;100;509
23.29;100;504
23.3;100;508
23.31;100;505
23.32;100;504
23.33;100;507
23.34;100;510
23.35;100;511
23.36;100;515
23.37;100;506
23.38;100;510
23.39;100;522
23.4;100;516
23.41;100;518
23.42;100;529
23.43;100;525
23.44;100;518
23.45;100;512
23.46;100;508
23.47;100;507
23.48;100;516
23.49;100;512
23.5;100;510
23.51;100;508
23.52;100;508
23.53;100;509
23.54;100;509
23.55;100;481
23.56;100;499
23.57;100;597
23.58;100;679
23.59;100;596
23.6;100;459
23.61;100;477
23.62;100;472
23.63;100;478
23.64;100;486
23.65;100;483
23.66;100;488
23.67;100;490
23.68;100;495
23.69;100;493
23.7;100;502
23.71;100;501
23.72;100;504
23.73;100;507
23.74;100;511
23.75;100;517
23.76;100;525
23.77;100;526
23.78;100;533
23.79;100;545
23.8;100;556
23.81;100;558
23.82;100;562
23.83;100;556
23.84;100;550
23.85;100;527
23.86;100;507
23.87;100;481
23.88;100;465
23.89;100;455
23.9;100;450
23.91;100;447
23.92;100;455
23.93;100;457
23.94;100;465
23.95;100;465
23.96;100;478
23.97;100;481
23.98;100;486
23.99;100;489
24;100;498
24.01;100;496
24.02;100;502
24.03;100;503
24.04;100;507
24.05;100;503
24.06;100;506
24.07;100;504
24.08;100;509
24.09;100;502
24.1;100;509
24.11;100;504
24.12;100;507
24.13;100;506
24.14;100;512
24.15;100;511
24.16;100;516
24.17;100;521
24.18;100;519
24.19;100;517
24.2;100;524
24.21;100;527
24.22;100;525
24.23;100;518
24.24;100;509
24.25;100;509
24.26;100;511
24.27;100;514
24.28;100;516
24.29;100;511
24.3;100;512
24.31;100;514
24.32;100;510
24.33;100;492
24.34;100;519
24.35;100;618
24.36;100;693
24.37;100;600
24.38;100;475
24.39;100;476
24.4;100;471
24.41;100;476
24.42;100;482
24.43;100;482
24.44;100;490
24.45;100;489
24.46;100;496
24.47;100;491
24.48;100;499
24.49;100;499
24.5;100;502
24.51;100;504
24.52;100;510
24.53;100;513
24.54;100;518
24.55;100;524
24.56;100;532
24.57;100;543
24.58;100;550
24.59;100;551
24.6;100;558
24.61;100;552
24.62;100;550
24.63;100;527
24.64;100;505
24.65;100;481
24.66;100;468
24.67;100;455
24.68;100;461
24.69;100;451
24.7;100;468
24.71;100;465
24.72;100;472
24.73;100;475
24.74;100;483
24.75;100;484
24.76;100;495
24.77;100;492
24.78;100;499
24.79;100;505
24.8;100;504
24.81;100;505
24.82;100;507
24.83;100;513
24.84;100;507
24.85;100;504
24.86;100;514
24.87;100;508
24.88;100;512
24.89;100;509
24.9;100;513
24.91;100;511
24.92;100;512
24.93;100;512
24.94;100;518
24.95;100;512
24.96;100;513
24.97;100;516
24.98;100;515
24.99;100;512
25;100;515
25.01;100;514
25.02;100;514
25.03;100;513
25.04;100;520
25.05;100;512
25.06;100;512
25.07;100;502
25.08;100;502
25.09;100;506
25.1;100;505
25.11;100;508
25.12;100;511
25.13;100;510
25.14;100;514
25.15;100;512
25.16;100;494
25.17;100;518
25.18;100;631
25.19;100;698
25.2;100;621
25.21;100;483
25.22;100;478
25.23;100;467
25.24;100;479
25.25;100;483
25.26;100;481
25.27;100;492
25.28;100;497
25.29;100;498
25.3;100;500
25.31;100;500
25.32;100;506
25.33;100;513
25.34;100;515
25.35;100;518
25.36;100;529
25.37;100;529
25.38;100;542
25.39;100;544
25.4;100;558
25.41;100;559
25.42;100;570
25.43;100;573
25.44;100;568
25.45;100;560
25.46;100;547
25.47;100;525
25.48;100;498
25.49;100;483
25.5;100;472
25.51;100;467
25.52;100;469
25.53;100;466
25.54;100;472
25.55;100;475
25.56;100;477
25.57;100;481
25.58;100;479
25.59;100;485
25.6;100;488
25.61;100;488
25.62;100;492
25.63;100;490
25.64;100;497
25.65;100;497
25.66;100;503
25.67;100;497
25.68;100;499
25.69;100;496
25.7;100;500
25.71;100;502
25.72;100;502
25.73;100;507
25.74;100;510
25.75;100;504
25.76;100;511
25.77;100;510
25.78;100;509
25.79;100;507
25.8;100;511
25.81;100;510
25.82;100;511
25.83;100;509
25.84;100;509
25.85;100;510
25.86;100;511
25.87;100;507
25.88;100;512
25.89;100;506
25.9;100;509
25.91;100;504
25.92;100;504
25.93;100;502
25.94;100;508
25.95;100;506
25.96;100;499
25.97;100;511
25.98;100;503
25.99;100;498
26;100;492
26.01;100;487
26.02;100;490
26.03;100;488
26.04;100;494
26.05;100;495
26.06;100;495
26.07;100;497
26.08;100;497
26.09;100;475
26.1;100;494
26.11;100;594
26.12;100;679
26.13;100;649
26.14;100;486
26.15;100;451
26.16;100;451
26.17;100;455
26.18;100;462
26.19;100;470
26.2;100;479
26.21;100;479
26.22;100;483
26.23;100;482
26.24;100;490
26.25;100;491
26.26;100;491
26.27;100;497
26.28;100;495
26.29;100;502
26.3;100;506
26.31;100;512
26.32;100;526
26.33;100;527
26.34;100;538
26.35;100;543
26.36;100;547
26.37;100;545
26.38;100;541
26.39;100;529
26.4;100;512
26.41;100;485
26.42;100;468
26.43;100;455
26.44;100;447
26.45;100;440
26.46;100;445
26.47;100;447
26.48;100;456
26.49;100;460
26.5;100;468
26.51;100;468
26.52;100;477
26.53;100;474
26.54;100;481
26.55;100;481
26.56;100;486
26.57;100;488
26.58;100;492
26.59;100;492
26.6;100;492
26.61;100;493
26.62;100;494
26.63;100;497
26.64;100;499
26.65;100;502
26.66;100;503
26.67;100;501
26.68;100;503
26.69;100;504
26.7;100;504
26.71;100;506
26.72;100;508
26.73;100;507
26.74;100;509
26.75;100;508
26.76;100;509
26.77;100;510
26.78;100;511
26.79;100;508
26.8;100;517
26.81;100;508
26.82;100;511
26.83;100;506
26.84;100;508
26.85;100;509
26.86;100;512
26.87;100;508
26.88;100;513
26.89;100;510
26.9;100;512
26.91;100;513
26.92;100;511
26.93;100;507
26.94;100;513
26.95;100;515
26.96;100;520
26.97;100;508
26.98;100;517
26.99;100;521
27;100;518
27.01;100;512
27.02;100;504
27.03;100;502
27.04;100;506
27.05;100;502
27.06;100;505
27.07;100;505
27.08;100;502
27.09;100;504
27.1;100;506
27.11;100;484
27.12;100;510
27.13;100;621
27.14;100;694
27.15;100;641
27.16;100;478
27.17;100;453
27.18;100;453
27.19;100;457
27.2;100;470
27.21;100;471
27.22;100;477
27.23;100;480
27.24;100;483
27.25;100;487
27.26;100;492
27.27;100;493
27.28;100;502
27.29;100;502
27.3;100;508
27.31;100;508
27.32;100;519
27.33;100;528
27.34;100;536
27.35;100;542
27.36;100;554
27.37;100;559
27.38;100;563
27.39;100;566
27.4;100;558
27.41;100;544
27.42;100;529
27.43;100;502
27.44;100;479
27.45;100;465
27.46;100;462
27.47;100;455
27.48;100;462
27.49;100;460
27.5;100;471
27.51;100;473
27.52;100;480
27.53;100;482
27.54;100;487
27.55;100;490
27.56;100;499
27.57;100;496
27.58;100;499
27.59;100;504
27.6;100;508
27.61;100;504
27.62;100;506
27.63;100;505
27.64;100;508
27.65;100;506
27.66;100;510
27.67;100;508
27.68;100;505
27.69;100;502
27.7;100;507
27.71;100;505
27.72;100;504
27.73;100;504
27.74;100;506
27.75;100;509
27.76;100;509
27.77;100;505
27.78;100;511
27.79;100;510
27.8;100;512
27.81;100;513
27.82;100;514
27.83;100;514
27.84;100;516
27.85;100;518
27.86;100;519
27.87;100;517
27.88;100;518
27.89;100;519
27.9;100;516
27.91;100;518
27.92;100;518
27.93;100;512
27.94;100;515
27.95;100;516
27.96;100;517
27.97;100;518
27.98;100;529
27.99;100;526
28;100;519
28.01;100;509
28.02;100;512
28.03;100;510
28.04;100;515
28.05;100;513
28.06;100;514
28.07;100;511
28.08;100;516
28.09;100;507
28.1;100;491
28.11;100;566
28.12;100;673
28.13;100;706
28.14;100;530
28.15;100;467
28.16;100;461
28.17;100;463
28.18;100;474
28.19;100;477
28.2;100;487
28.21;100;495
28.22;100;499
28.23;100;497
28.24;100;510
28.25;100;504
28.26;100;512
28.27;100;513
28.28;100;524
28.29;100;523
28.3;100;530
28.31;100;532
28.32;100;542
28.33;100;549
28.34;100;557
28.35;100;561
28.36;100;565
28.37;100;567
28.38;100;561
28.39;100;548
28.4;100;536
28.41;100;513
28.42;100;491
28.43;100;467
28.44;100;463
28.45;100;453
28.46;100;458
28.47;100;457
28.48;100;462
28.49;100;467
28.5;100;481
28.51;100;479
28.52;100;488
28.53;100;497
28.54;100;498
28.55;100;501
28.56;100;504
28.57;100;503
28.58;100;502
28.59;100;508
28.6;100;500
28.61;100;506
28.62;100;510
28.63;100;510
28.64;100;512
28.65;100;510
28.66;100;513
28.67;100;514
28.68;100;515
28.69;100;510
28.7;100;515
28.71;100;511
28.72;100;515
28.73;100;513
28.74;100;513
28.75;100;513
28.76;100;515
28.77;100;515
28.78;100;516
28.79;100;515
28.8;100;516
28.81;100;524
28.82;100;526
28.83;100;521
28.84;100;529
28.85;100;529
28.86;100;533
28.87;100;520
28.88;100;514
28.89;100;513
28.9;100;522
28.91;100;512
28.92;100;515
28.93;100;516
28.94;100;512
28.95;100;510
28.96;100;505
28.97;100;491
28.98;100;563
28.99;100;663
29;100;684
29.01;100;484
29.02;100;468
29.03;100;472
29.04;100;473
29.05;100;483
29.06;100;482
29.07;100;494
29.08;100;497
29.09;100;500
29.1;100;503
29.11;100;502
29.12;100;508
29.13;100;510
29.14;100;513
29.15;100;513
29.16;100;519
29.17;100;524
29.18;100;532
29.19;100;534
29.2;100;547
29.21;100;552
29.22;100;564
29.23;100;565
29.24;100;565
29.25;100;553
29.26;100;539
29.27;100;524
29.28;100;498
29.29;100;472
29.3;100;455
29.31;100;449
29.32;100;446
29.33;100;448
29.34;100;453
29.35;100;454
29.36;100;468
29.37;100;469
29.38;100;477
29.39;100;481
29.4;100;484
29.41;100;485
29.42;100;492
29.43;100;493
29.44;100;496
29.45;100;496
29.46;100;498
29.47;100;498
29.48;100;497
29.49;100;497
29.5;100;491
29.51;100;496
29.52;100;504
29.53;100;500
29.54;100;507
29.55;100;503
29.56;100;508
29.57;100;500
29.58;100;499
29.59;100;508
29.6;100;508
29.61;100;504
29.62;100;513
29.63;100;511
29.64;100;508
29.65;100;493
29.66;100;503
29.67;100;500
29.68;100;507
29.69;100;509
29.7;100;517
29.71;100;509
29.72;100;512
29.73;100;513
29.74;100;495
29.75;100;504
29.76;100;601
29.77;100;676
29.78;100;614
29.79;100;465
29.8;100;480
29.81;100;475
29.82;100;481
29.83;100;483
29.84;100;487
29.85;100;492
29.86;100;492
29.87;100;494
29.88;100;496
29.89;100;496
29.9;100;500
29.91;100;501
29.92;100;509
29.93;100;513
29.94;100;519
29.95;100;518
29.96;100;529
29.97;100;536
29.98;100;547
29.99;100;551
30;100;558
30.01;100;561
30.02;100;561
30.03;100;552
30.04;100;532
30.05;100;509
30.06;100;494
30.07;100;466
30.08;100;462
30.09;100;457
30.1;100;457
30.11;100;462
30.12;100;462
30.13;100;472
30.14;100;475
30.15;100;479
30.16;100;488
30.17;100;489
30.18;100;500
30.19;100;501
30.2;100;508
30.21;100;505
30.22;100;510
30.23;100;513
30.24;100;512
30.25;100;508
30.26;100;513
30.27;100;511
30.28;100;514
30.29;100;508
30.3;100;512
30.31;100;512
30.32;100;516
30.33;100;512
30.34;100;517
30.35;100;514
30.36;100;519
30.37;100;510
30.38;100;521
30.39;100;521
30.4;100;514
30.41;100;507
30.42;100;507
30.43;100;503
30.44;100;506
30.45;100;502
30.46;100;508
30.47;100;505
30.48;100;509
30.49;100;509
30.5;100;491
30.51;100;508
30.52;100;613
30.53;100;692
30.54;100;638
30.55;100;477
30.56;100;477
30.57;100;467
30.58;100;476
30.59;100;479
30.6;100;487
30.61;100;489
30.62;100;489
30.63;100;494
30.64;100;503
30.65;100;505
30.66;100;510
30.67;100;504
30.68;100;512
30.69;100;509
30.7;100;516
30.71;100;521
30.72;100;528
30.73;100;527
30.74;100;541
30.75;100;548
30.76;100;553
30.77;100;555
30.78;100;555
30.79;100;540
30.8;100;533
30.81;100;508
30.82;100;484
30.83;100;466
30.84;100;455
30.85;100;450
30.86;100;451
30.87;100;451
30.88;100;459
30.89;100;465
30.9;100;467
30.91;100;471
30.92;100;481
30.93;100;487
30.94;100;491
30.95;100;492
30.96;100;496
30.97;100;498
30.98;100;501
30.99;100;503
31;100;504
31.01;100;505
31.02;100;506
31.03;100;500
31.04;100;505
31.05;100;504
31.06;100;503
31.07;100;502
31.08;100;507
31.09;100;509
31.1;100;506
31.11;100;500
31.12;100;504
31.13;100;505
31.14;100;511
31.15;100;507
31.16;100;512
31.17;100;506
31.18;100;513
31.19;100;518
31.2;100;508
31.21;100;500
31.22;100;496
31.23;100;490
31.24;100;497
31.25;100;498
31.26;100;497
31.27;100;499
31.28;100;502
31.29;100;494
31.3;100;478
31.31;100;496
31.32;100;615
31.33;100;694
31.34;100;654
31.35;100;479
31.36;100;454
31.37;100;447
31.38;100;462
31.39;100;463
31.4;100;472
31.41;100;472
31.42;100;482
31.43;100;484
31.44;100;489
31.45;100;491
31.46;100;497
31.47;100;497
31.48;100;504
31.49;100;512
31.5;100;517
31.51;100;518
31.52;100;523
31.53;100;534
31.54;100;547
31.55;100;553
31.56;100;560
31.57;100;555
31.58;100;554
31.59;100;546
31.6;100;533
31.61;100;510
31.62;100;486
31.63;100;462
31.64;100;456
31.65;100;450
31.66;100;450
31.67;100;452
31.68;100;455
31.69;100;459
31.7;100;466
31.71;100;467
31.72;100;475
31.73;100;480
31.74;100;487
31.75;100;487
31.76;100;493
31.77;100;491
31.78;100;496
31.79;100;505
31.8;100;501
31.81;100;504
31.82;100;502
31.83;100;504
31.84;100;509
31.85;100;504
31.86;100;511
31.87;100;509
31.88;100;508
31.89;100;502
31.9;100;507
31.91;100;508
31.92;100;511
31.93;100;505
31.94;100;504
31.95;100;505
31.96;100;506
31.97;100;506
31.98;100;512
31.99;100;502
32;100;504
32.01;100;515
32.02;100;512
32.03;100;502
32.04;100;498
32.05;100;495
32.06;100;494
32.07;100;496
32.08;100;499
32.09;100;502
32.1;100;503
32.11;100;500
32.12;100;502
32.13;100;476
32.14;100;508
32.15;100;623
32.16;100;704
32.17;100;636
32.18;100;477
32.19;100;462
32.2;100;460
32.21;100;466
32.22;100;476
32.23;100;481
32.24;100;482
32.25;100;490
32.26;100;495
32.27;100;496
32.28;100;502
32.29;100;504
32.3;100;509
32.31;100;514
32.32;100;511
32.33;100;521
32.34;100;527
32.35;100;527
32.36;100;538
32.37;100;544
32.38;100;554
32.39;100;558
32.4;100;560
32.41;100;556
32.42;100;550
32.43;100;534
32.44;100;507
32.45;100;483
32.46;100;466
32.47;100;452
32.48;100;447
32.49;100;444
32.5;100;449
32.51;100;454
32.52;100;465
32.53;100;466
32.54;100;472
32.55;100;476
32.56;100;480
32.57;100;481
32.58;100;487
32.59;100;488
32.6;100;498
32.61;100;497
32.62;100;502
32.63;100;504
32.64;100;506
32.65;100;506
32.66;100;508
32.67;100;502
32.68;100;507
32.69;100;511
32.7;100;510
32.71;100;508
32.72;100;502
32.73;100;502
32.74;100;507
32.75;100;501
32.76;100;511
32.77;100;513
32.78;100;509
32.79;100;510
32.8;100;510
32.81;100;510
32.82;100;512
32.83;100;511
32.84;100;518
32.85;100;517
32.86;100;517
32.87;100;515
32.88;100;524
32.89;100;514
32.9;100;511
32.91;100;501
32.92;100;504
32.93;100;505
32.94;100;504
32.95;100;503
32.96;100;502
32.97;100;504
32.98;100;506
32.99;100;497
33;100;477
33.01;100;518
33.02;100;634
33.03;100;711
33.04;100;605
33.05;100;468
33.06;100;460
33.07;100;454
33.08;100;467
33.09;100;472
33.1;100;480
33.11;100;488
33.12;100;494
33.13;100;493
33.14;100;495
33.15;100;500
33.16;100;500
33.17;100;501
33.18;100;506
33.19;100;505
33.2;100;513
33.21;100;519
33.22;100;527
33.23;100;540
33.24;100;546
33.25;100;554
33.26;100;557
33.27;100;559
33.28;100;557
33.29;100;543
33.3;100;530
33.31;100;507
33.32;100;480
33.33;100;462
33.34;100;454
33.35;100;448
33.36;100;449
33.37;100;450
33.38;100;456
33.39;100;460
33.4;100;471
33.41;100;470
33.42;100;475
33.43;100;484
33.44;100;490
33.45;100;493
33.46;100;496
33.47;100;501
33.48;100;504
33.49;100;503
33.5;100;507
33.51;100;505
33.52;100;507
33.53;100;503
33.54;100;507
33.55;100;504
33.56;100;502
33.57;100;506
33.58;100;504
33.59;100;506
33.6;100;506
33.61;100;504
33.62;100;510
33.63;100;508
33.64;100;511
33.65;100;508
33.66;100;507
33.67;100;510
33.68;100;516
33.69;100;513
33.7;100;513
33.71;100;516
33.72;100;520
33.73;100;509
33.74;100;508
33.75;100;512
33.76;100;512
33.77;100;510
33.78;100;509
33.79;100;510
33.8;100;512
33.81;100;519
33.82;100;512
33.83;100;504
33.84;100;486
33.85;100;541
33.86;100;659
33.87;100;696
33.88;100;521
33.89;100;467
33.9;100;472
33.91;100;469
33.92;100;482
33.93;100;481
33.94;100;485
33.95;100;489
33.96;100;495
33.97;100;497
33.98;100;500
33.99;100;498
34;100;504
34.01;100;506
34.02;100;512
34.03;100;514
34.04;100;521
34.05;100;524
34.06;100;536
34.07;100;540
34.08;100;549
34.09;100;554
34.1;100;564
34.11;100;558
34.12;100;557
34.13;100;544
34.14;100;521
34.15;100;496
34.16;100;470
34.17;100;453
34.18;100;441
34.19;100;440
34.2;100;441
34.21;100;448
34.22;100;455
34.23;100;459
34.24;100;474
34.25;100;479
34.26;100;483
34.27;100;482
34.28;100;491
34.29;100;497
34.3;100;502
34.31;100;500
34.32;100;506
34.33;100;501
34.34;100;507
34.35;100;503
34.36;100;505
34.37;100;502
34.38;100;502
34.39;100;499
34.4;100;504
34.41;100;505
34.42;100;511
34.43;100;504
34.44;100;511
34.45;100;507
34.46;100;512
34.47;100;512
34.48;100;515
34.49;100;514
34.5;100;525
34.51;100;520
34.52;100;512
34.53;100;505
34.54;100;505
34.55;100;503
34.56;100;507
34.57;100;507
34.58;100;505
34.59;100;507
34.6;100;508
34.61;100;508
34.62;100;503
34.63;100;483
34.64;100;511
34.65;100;611
34.66;100;692
34.67;100;600
34.68;100;469
34.69;100;479
34.7;100;472
34.71;100;476
34.72;100;479
34.73;100;484
34.74;100;492
34.75;100;492
34.76;100;495
34.77;100;499
34.78;100;500
34.79;100;500
34.8;100;510
34.81;100;511
34.82;100;521
34.83;100;520
34.84;100;529
34.85;100;533
34.86;100;539
34.87;100;549
34.88;100;556
34.89;100;558
34.9;100;560
34.91;100;551
34.92;100;547
34.93;100;523
34.94;100;505
34.95;100;481
34.96;100;462
34.97;100;453
34.98;100;459
34.99;100;456
35;100;461
35.01;100;467
35.02;100;476
35.03;100;480
35.04;100;486
35.05;100;492
35.06;100;501
35.07;100;504
35.08;100;499
35.09;100;502
35.1;100;506
35.11;100;505
35.12;100;508
35.13;100;504
35.14;100;508
35.15;100;505
35.16;100;512
35.17;100;508
35.18;100;508
35.19;100;505
35.2;100;508
35.21;100;507
35.22;100;509
35.23;100;502
35.24;100;511
35.25;100;505
35.26;100;512
35.27;100;511
35.28;100;511
35.29;100;513
35.3;100;516
35.31;100;515
35.32;100;519
35.33;100;528
35.34;100;520
35.35;100;519
35.36;100;511
35.37;100;508
35.38;100;512
35.39;100;513
35.4;100;511
35.41;100;505
35.42;100;513
35.43;100;508
35.44;100;511
35.45;100;498
35.46;100;494
35.47;100;567
35.48;100;674
35.49;100;684
35.5;100;505
35.51;100;469
35.52;100;469
35.53;100;467
35.54;100;478
35.55;100;478
35.56;100;483
35.57;100;488
35.58;100;492
35.59;100;494
35.6;100;499
35.61;100;505
35.62;100;505
35.63;100;508
35.64;100;516
35.65;100;518
35.66;100;523
35.67;100;533
35.68;100;539
35.69;100;544
35.7;100;552
35.71;100;559
35.72;100;562
35.73;100;565
35.74;100;561
35.75;100;544
35.76;100;527
35.77;100;499
35.78;100;479
35.79;100;463
35.8;100;460
35.81;100;460
35.82;100;461
35.83;100;465
35.84;100;467
35.85;100;476
35.86;100;481
35.87;100;486
35.88;100;490
35.89;100;492
35.9;100;496
35.91;100;496
35.92;100;499
35.93;100;505
35.94;100;508
35.95;100;504
35.96;100;510
35.97;100;509
35.98;100;512
35.99;100;510
36;100;511
36.01;100;514
36.02;100;515
36.03;100;513
36.04;100;516
36.05;100;515
36.06;100;515
36.07;100;511
36.08;100;516
36.09;100;512
36.1;100;513
36.11;100;515
36.12;100;517
36.13;100;517
36.14;100;521
36.15;100;525
36.16;100;516
36.17;100;513
36.18;100;527
36.19;100;519
36.2;100;513
36.21;100;505
36.22;100;505
36.23;100;503
36.24;100;501
36.25;100;500
36.26;100;500
36.27;100;498
36.28;100;498
36.29;100;504
36.3;100;499
36.31;100;475
36.32;100;523
36.33;100;638
36.34;100;701
36.35;100;579
36.36;100;471
36.37;100;466
36.38;100;461
36.39;100;468
36.4;100;475
36.41;100;474
36.42;100;485
36.43;100;484
36.44;100;487
36.45;100;490
36.46;100;496
36.47;100;495
36.48;100;497
36.49;100;499
36.5;100;510
36.51;100;511
36.52;100;523
36.53;100;525
36.54;100;536
36.55;100;540
36.56;100;552
36.57;100;553
36.58;100;559
36.59;100;557
36.6;100;554
36.61;100;536
36.62;100;515
36.63;100;491
36.64;100;473
36.65;100;461
36.66;100;454
36.67;100;451
36.68;100;455
36.69;100;460
36.7;100;466
36.71;100;473
36.72;100;481
36.73;100;483
36.74;100;493
36.75;100;488
36.76;100;503
36.77;100;491
36.78;100;508
36.79;100;503
36.8;100;507
36.81;100;504
36.82;100;510
36.83;100;506
36.84;100;512
36.85;100;509
36.86;100;508
36.87;100;506
36.88;100;513
36.89;100;507
36.9;100;517
36.91;100;508
36.92;100;512
36.93;100;508
36.94;100;508
36.95;100;507
36.96;100;507
36.97;100;508
36.98;100;504
36.99;100;503
37;100;507
37.01;100;502
37.02;100;501
37.03;100;503
37.04;100;502
37.05;100;503
37.06;100;504
37.07;100;504
37.08;100;503
37.09;100;502
37.1;100;508
37.11;100;509
37.12;100;502
37.13;100;511
37.14;100;513
37.15;100;511
37.16;100;508
37.17;100;496
37.18;100;503
37.19;100;501
37.2;100;503
37.21;100;502
37.22;100;505
37.23;100;505
37.24;100;502
37.25;100;498
37.26;100;482
37.27;100;547
37.28;100;664
37.29;100;697
37.3;100;558
37.31;100;470
37.32;100;464
37.33;100;461
37.34;100;475
37.35;100;478
37.36;100;484
37.37;100;495
37.38;100;491
37.39;100;496
37.4;100;502
37.41;100;502
37.42;100;508
37.43;100;508
37.44;100;511
37.45;100;509
37.46;100;520
37.47;100;527
37.48;100;528
37.49;100;535
37.5;100;548
37.51;100;551
37.52;100;561
37.53;100;562
37.54;100;555
37.55;100;547
37.56;100;531
37.57;100;511
37.58;100;491
37.59;100;465
37.6;100;457
37.61;100;451
37.62;100;459
37.63;100;455
37.64;100;464
37.65;100;467
37.66;100;472
37.67;100;472
37.68;100;480
37.69;100;479
37.7;100;487
37.71;100;487
37.72;100;491
37.73;100;492
37.74;100;497
37.75;100;497
37.76;100;502
37.77;100;503
37.78;100;500
37.79;100;504
37.8;100;505
37.81;100;500
37.82;100;502
37.83;100;500
37.84;100;503
37.85;100;502
37.86;100;504
37.87;100;503
37.88;100;505
37.89;100;505
37.9;100;512
37.91;100;512
37.92;100;512
37.93;100;509
37.94;100;512
37.95;100;510
37.96;100;508
37.97;100;508
37.98;100;511
37.99;100;513
38;100;514
38.01;100;514
38.02;100;515
38.03;100;515
38.04;100;519
38.05;100;517
38.06;100;522
38.07;100;522
38.08;100;520
38.09;100;523
38.1;100;528
38.11;100;522
38.12;100;519
38.13;100;510
38.14;100;509
38.15;100;509
38.16;100;507
38.17;100;510
38.18;100;508
38.19;100;507
38.2;100;507
38.21;100;501
38.22;100;481
38.23;100;540
38.24;100;652
38.25;100;702
38.26;100;584
38.27;100;463
38.28;100;461
38.29;100;462
38.3;100;473
38.31;100;471
38.32;100;477
38.33;100;477
38.34;100;482
38.35;100;487
38.36;100;492
38.37;100;493
38.38;100;501
38.39;100;498
38.4;100;507
38.41;100;508
38.42;100;519
38.43;100;521
38.44;100;536
38.45;100;539
38.46;100;551
38.47;100;556
38.48;100;561
38.49;100;560
38.5;100;561
38.51;100;548
38.52;100;534
38.53;100;514
38.54;100;489
38.55;100;474
38.56;100;459
38.57;100;451
38.58;100;451
38.59;100;452
38.6;100;456
38.61;100;461
38.62;100;467
38.63;100;469
38.64;100;477
38.65;100;475
38.66;100;482
38.67;100;481
38.68;100;489
38.69;100;487
38.7;100;497
38.71;100;493
38.72;100;495
38.73;100;497
38.74;100;498
38.75;100;496
38.76;100;504
38.77;100;506
38.78;100;505
38.79;100;504
38.8;100;505
38.81;100;507
38.82;100;511
38.83;100;508
38.84;100;510
38.85;100;511
38.86;100;507
38.87;100;512
38.88;100;509
38.89;100;510
38.9;100;510
38.91;100;505
38.92;100;509
38.93;100;505
38.94;100;505
38.95;100;505
38.96;100;504
38.97;100;505
38.98;100;506
38.99;100;507
39;100;511
39.01;100;509
39.02;100;508
39.03;100;508
39.04;100;518
39.05;100;516
39.06;100;510
39.07;100;498
39.08;100;499
39.09;100;497
39.1;100;493
39.11;100;501
39.12;100;501
39.13;100;502
39.14;100;500
39.15;100;488
39.16;100;481
39.17;100;555
39.18;100;668
39.19;100;695
39.2;100;515
39.21;100;457
39.22;100;455
39.23;100;460
39.24;100;467
39.25;100;472
39.26;100;479
39.27;100;481
39.28;100;486
39.29;100;492
39.3;100;496
39.31;100;499
39.32;100;500
39.33;100;505
39.34;100;513
39.35;100;518
39.36;100;519
39.37;100;528
39.38;100;536
39.39;100;544
39.4;100;552
39.41;100;560
39.42;100;569
39.43;100;562
39.44;100;556
39.45;100;543
39.46;100;532
39.47;100;504
39.48;100;482
39.49;100;462
39.5;100;449
39.51;100;442
39.52;100;441
39.53;100;451
39.54;100;454
39.55;100;460
39.56;100;464
39.57;100;472
39.58;100;481
39.59;100;481
39.6;100;489
39.61;100;490
39.62;100;494
39.63;100;495
39.64;100;497
39.65;100;498
39.66;100;495
39.67;100;499
39.68;100;499
39.69;100;499
39.7;100;501
39.71;100;493
39.72;100;505
39.73;100;500
39.74;100;505
39.75;100;501
39.76;100;506
39.77;100;506
39.78;100;504
39.79;100;508
39.8;100;508
39.81;100;509
39.82;100;516
39.83;100;514
39.84;100;516
39.85;100;515
39.86;100;518
39.87;100;515
39.88;100;515
39.89;100;515
39.9;100;521
39.91;100;517
39.92;100;517
39.93;100;524
39.94;100;527
39.95;100;517
39.96;100;512
39.97;100;501
39.98;100;502
39.99;100;499
