time;Sampling Frequency;ECG
0;1000;524
0.001;1000;520
0.002;1000;518
0.003;1000;515
0.004;1000;512
0.005;1000;509
0.006;1000;505
0.007;1000;503
0.008;1000;500
0.009;1000;496
0.01;1000;491
0.011;1000;488
0.012;1000;487
0.013;1000;486
0.014;1000;484
0.015;1000;485
0.016;1000;486
0.017;1000;484
0.018;1000;482
0.019;1000;480
0.02;1000;477
0.021;1000;473
0.022;1000;469
0.023;1000;468
0.024;1000;470
0.025;1000;471
0.026;1000;469
0.027;1000;467
0.028;1000;465
0.029;1000;464
0.03;1000;460
0.031;1000;458
0.032;1000;457
0.033;1000;458
0.034;1000;459
0.035;1000;460
0.036;1000;461
0.037;1000;461
0.038;1000;462
0.039;1000;460
0.04;1000;456
0.041;1000;454
0.042;1000;452
0.043;1000;452
0.044;1000;452
0.045;1000;451
0.046;1000;450
0.047;1000;448
0.048;1000;448
0.049;1000;449
0.05;1000;449
0.051;1000;452
0.052;1000;455
0.053;1000;457
0.054;1000;457
0.055;1000;458
0.056;1000;460
0.057;1000;460
0.058;1000;461
0.059;1000;461
0.06;1000;460
0.061;1000;459
0.062;1000;458
0.063;1000;458
0.064;1000;458
0.065;1000;457
0.066;1000;457
0.067;1000;458
0.068;1000;457
0.069;1000;456
0.07;1000;456
0.071;1000;459
0.072;1000;462
0.073;1000;462
0.074;1000;462
0.075;1000;462
0.076;1000;463
0.077;1000;464
0.078;1000;467
0.079;1000;471
0.08;1000;472
0.081;1000;470
0.082;1000;468
0.083;1000;468
0.084;1000;468
0.085;1000;467
0.086;1000;465
0.087;1000;465
0.088;1000;468
0.089;1000;468
0.09;1000;467
0.091;1000;468
0.092;1000;470
0.093;1000;471
0.094;1000;472
0.095;1000;472
0.096;1000;472
0.097;1000;472
0.098;1000;472
0.099;1000;475
0.1;1000;476
0.101;1000;477
0.102;1000;476
0.103;1000;478
0.104;1000;480
0.105;1000;478
0.106;1000;475
0.107;1000;473
0.108;1000;471
0.109;1000;470
0.11;1000;471
0.111;1000;472
0.112;1000;471
0.113;1000;472
0.114;1000;475
0.115;1000;478
0.116;1000;479
0.117;1000;480
0.118;1000;482
0.119;1000;483
0.12;1000;483
0.121;1000;485
0.122;1000;485
0.123;1000;488
0.124;1000;488
0.125;1000;487
0.126;1000;485
0.127;1000;483
0.128;1000;483
0.129;1000;484
0.13;1000;486
0.131;1000;486
0.132;1000;484
0.133;1000;483
0.134;1000;485
0.135;1000;487
0.136;1000;489
0.137;1000;491
0.138;1000;493
0.139;1000;492
0.14;1000;493
0.141;1000;492
0.142;1000;490
0.143;1000;490
0.144;1000;489
0.145;1000;487
0.146;1000;486
0.147;1000;485
0.148;1000;487
0.149;1000;489
0.15;1000;491
0.151;1000;489
0.152;1000;488
0.153;1000;487
0.154;1000;487
0.155;1000;487
0.156;1000;487
0.157;1000;490
0.158;1000;491
0.159;1000;493
0.16;1000;493
0.161;1000;490
0.162;1000;487
0.163;1000;485
0.164;1000;483
0.165;1000;483
0.166;1000;482
0.167;1000;481
0.168;1000;481
0.169;1000;480
0.17;1000;481
0.171;1000;487
0.172;1000;490
0.173;1000;492
0.174;1000;493
0.175;1000;492
0.176;1000;490
0.177;1000;491
0.178;1000;493
0.179;1000;494
0.18;1000;494
0.181;1000;495
0.182;1000;496
0.183;1000;497
0.184;1000;497
0.185;1000;494
0.186;1000;489
0.187;1000;486
0.188;1000;483
0.189;1000;483
0.19;1000;484
0.191;1000;486
0.192;1000;486
0.193;1000;487
0.194;1000;489
0.195;1000;491
0.196;1000;492
0.197;1000;494
0.198;1000;497
0.199;1000;497
0.2;1000;496
0.201;1000;496
0.202;1000;495
0.203;1000;494
0.204;1000;492
0.205;1000;492
0.206;1000;493
0.207;1000;494
0.208;1000;494
0.209;1000;493
0.21;1000;494
0.211;1000;493
0.212;1000;493
0.213;1000;492
0.214;1000;493
0.215;1000;495
0.216;1000;495
0.217;1000;494
0.218;1000;493
0.219;1000;492
0.22;1000;492
0.221;1000;493
0.222;1000;493
0.223;1000;492
0.224;1000;491
0.225;1000;490
0.226;1000;489
0.227;1000;487
0.228;1000;487
0.229;1000;488
0.23;1000;490
0.231;1000;491
0.232;1000;490
0.233;1000;491
0.234;1000;493
0.235;1000;497
0.236;1000;498
0.237;1000;497
0.238;1000;496
0.239;1000;497
0.24;1000;494
0.241;1000;494
0.242;1000;494
0.243;1000;495
0.244;1000;496
0.245;1000;494
0.246;1000;492
0.247;1000;491
0.248;1000;489
0.249;1000;488
0.25;1000;488
0.251;1000;491
0.252;1000;494
0.253;1000;496
0.254;1000;497
0.255;1000;498
0.256;1000;497
0.257;1000;497
0.258;1000;498
0.259;1000;498
0.26;1000;498
0.261;1000;498
0.262;1000;499
0.263;1000;499
0.264;1000;498
0.265;1000;496
0.266;1000;494
0.267;1000;493
0.268;1000;494
0.269;1000;494
0.27;1000;492
0.271;1000;490
0.272;1000;492
0.273;1000;494
0.274;1000;496
0.275;1000;498
0.276;1000;499
0.277;1000;500
0.278;1000;503
0.279;1000;505
0.28;1000;504
0.281;1000;502
0.282;1000;499
0.283;1000;499
0.284;1000;498
0.285;1000;497
0.286;1000;497
0.287;1000;499
0.288;1000;499
0.289;1000;499
0.29;1000;498
0.291;1000;496
0.292;1000;496
0.293;1000;496
0.294;1000;497
0.295;1000;497
0.296;1000;499
0.297;1000;500
0.298;1000;503
0.299;1000;503
0.3;1000;503
0.301;1000;501
0.302;1000;500
0.303;1000;498
0.304;1000;497
0.305;1000;497
0.306;1000;498
0.307;1000;497
0.308;1000;496
0.309;1000;497
0.31;1000;497
0.311;1000;498
0.312;1000;499
0.313;1000;499
0.314;1000;500
0.315;1000;502
0.316;1000;503
0.317;1000;503
0.318;1000;504
0.319;1000;504
0.32;1000;502
0.321;1000;501
0.322;1000;499
0.323;1000;499
0.324;1000;501
0.325;1000;500
0.326;1000;496
0.327;1000;494
0.328;1000;490
0.329;1000;489
0.33;1000;494
0.331;1000;501
0.332;1000;507
0.333;1000;509
0.334;1000;508
0.335;1000;510
0.336;1000;512
0.337;1000;512
0.338;1000;511
0.339;1000;510
0.34;1000;508
0.341;1000;507
0.342;1000;505
0.343;1000;505
0.344;1000;504
0.345;1000;504
0.346;1000;503
0.347;1000;503
0.348;1000;503
0.349;1000;504
0.35;1000;505
0.351;1000;506
0.352;1000;506
0.353;1000;504
0.354;1000;502
0.355;1000;500
0.356;1000;499
0.357;1000;499
0.358;1000;501
0.359;1000;504
0.36;1000;506
0.361;1000;510
0.362;1000;512
0.363;1000;511
0.364;1000;509
0.365;1000;511
0.366;1000;512
0.367;1000;511
0.368;1000;510
0.369;1000;509
0.37;1000;507
0.371;1000;507
0.372;1000;505
0.373;1000;505
0.374;1000;503
0.375;1000;504
0.376;1000;505
0.377;1000;507
0.378;1000;510
0.379;1000;511
0.38;1000;512
0.381;1000;513
0.382;1000;513
0.383;1000;513
0.384;1000;512
0.385;1000;512
0.386;1000;510
0.387;1000;508
0.388;1000;508
0.389;1000;507
0.39;1000;508
0.391;1000;508
0.392;1000;508
0.393;1000;507
0.394;1000;507
0.395;1000;509
0.396;1000;511
0.397;1000;511
0.398;1000;510
0.399;1000;510
0.4;1000;511
0.401;1000;512
0.402;1000;512
0.403;1000;511
0.404;1000;509
0.405;1000;507
0.406;1000;505
0.407;1000;505
0.408;1000;507
0.409;1000;510
0.41;1000;511
0.411;1000;511
0.412;1000;513
0.413;1000;515
0.414;1000;516
0.415;1000;518
0.416;1000;519
0.417;1000;520
0.418;1000;519
0.419;1000;517
0.42;1000;516
0.421;1000;517
0.422;1000;517
0.423;1000;516
0.424;1000;514
0.425;1000;513
0.426;1000;511
0.427;1000;511
0.428;1000;511
0.429;1000;511
0.43;1000;512
0.431;1000;514
0.432;1000;517
0.433;1000;520
0.434;1000;521
0.435;1000;522
0.436;1000;524
0.437;1000;526
0.438;1000;528
0.439;1000;527
0.44;1000;526
0.441;1000;525
0.442;1000;523
0.443;1000;521
0.444;1000;519
0.445;1000;518
0.446;1000;514
0.447;1000;512
0.448;1000;512
0.449;1000;512
0.45;1000;513
0.451;1000;516
0.452;1000;517
0.453;1000;516
0.454;1000;517
0.455;1000;519
0.456;1000;519
0.457;1000;520
0.458;1000;519
0.459;1000;519
0.46;1000;520
0.461;1000;521
0.462;1000;522
0.463;1000;524
0.464;1000;525
0.465;1000;524
0.466;1000;521
0.467;1000;521
0.468;1000;521
0.469;1000;523
0.47;1000;525
0.471;1000;528
0.472;1000;528
0.473;1000;526
0.474;1000;524
0.475;1000;523
0.476;1000;525
0.477;1000;526
0.478;1000;527
0.479;1000;528
0.48;1000;529
0.481;1000;530
0.482;1000;528
0.483;1000;527
0.484;1000;526
0.485;1000;523
0.486;1000;523
0.487;1000;522
0.488;1000;520
0.489;1000;518
0.49;1000;516
0.491;1000;514
0.492;1000;512
0.493;1000;512
0.494;1000;513
0.495;1000;512
0.496;1000;512
0.497;1000;512
0.498;1000;512
0.499;1000;511
0.5;1000;510
0.501;1000;511
0.502;1000;512
0.503;1000;511
0.504;1000;512
0.505;1000;512
0.506;1000;511
0.507;1000;510
0.508;1000;508
0.509;1000;507
0.51;1000;508
0.511;1000;510
0.512;1000;511
0.513;1000;511
0.514;1000;511
0.515;1000;510
0.516;1000;509
0.517;1000;506
0.518;1000;505
0.519;1000;505
0.52;1000;507
0.521;1000;510
0.522;1000;512
0.523;1000;513
0.524;1000;512
0.525;1000;511
0.526;1000;511
0.527;1000;510
0.528;1000;509
0.529;1000;510
0.53;1000;510
0.531;1000;510
0.532;1000;510
0.533;1000;511
0.534;1000;511
0.535;1000;515
0.536;1000;518
0.537;1000;518
0.538;1000;517
0.539;1000;515
0.54;1000;512
0.541;1000;511
0.542;1000;512
0.543;1000;512
0.544;1000;511
0.545;1000;511
0.546;1000;510
0.547;1000;510
0.548;1000;509
0.549;1000;509
0.55;1000;510
0.551;1000;512
0.552;1000;515
0.553;1000;516
0.554;1000;516
0.555;1000;516
0.556;1000;515
0.557;1000;515
0.558;1000;514
0.559;1000;512
0.56;1000;511
0.561;1000;511
0.562;1000;510
0.563;1000;511
0.564;1000;510
0.565;1000;508
0.566;1000;507
0.567;1000;504
0.568;1000;502
0.569;1000;501
0.57;1000;501
0.571;1000;500
0.572;1000;497
0.573;1000;492
0.574;1000;487
0.575;1000;485
0.576;1000;484
0.577;1000;483
0.578;1000;483
0.579;1000;484
0.58;1000;487
0.581;1000;490
0.582;1000;496
0.583;1000;505
0.584;1000;512
0.585;1000;519
0.586;1000;526
0.587;1000;535
0.588;1000;545
0.589;1000;554
0.59;1000;564
0.591;1000;574
0.592;1000;585
0.593;1000;598
0.594;1000;612
0.595;1000;626
0.596;1000;638
0.597;1000;648
0.598;1000;657
0.599;1000;665
0.6;1000;672
0.601;1000;677
0.602;1000;682
0.603;1000;687
0.604;1000;693
0.605;1000;698
0.606;1000;702
0.607;1000;705
0.608;1000;704
0.609;1000;703
0.61;1000;699
0.611;1000;692
0.612;1000;678
0.613;1000;660
0.614;1000;639
0.615;1000;618
0.616;1000;593
0.617;1000;569
0.618;1000;548
0.619;1000;530
0.62;1000;515
0.621;1000;501
0.622;1000;490
0.623;1000;482
0.624;1000;479
0.625;1000;477
0.626;1000;473
0.627;1000;468
0.628;1000;466
0.629;1000;465
0.63;1000;467
0.631;1000;470
0.632;1000;471
0.633;1000;473
0.634;1000;474
0.635;1000;473
0.636;1000;473
0.637;1000;472
0.638;1000;471
0.639;1000;470
0.64;1000;471
0.641;1000;472
0.642;1000;471
0.643;1000;471
0.644;1000;470
0.645;1000;469
0.646;1000;468
0.647;1000;467
0.648;1000;467
0.649;1000;467
0.65;1000;469
0.651;1000;470
0.652;1000;470
0.653;1000;469
0.654;1000;469
0.655;1000;472
0.656;1000;476
0.657;1000;478
0.658;1000;479
0.659;1000;478
0.66;1000;479
0.661;1000;479
0.662;1000;479
0.663;1000;479
0.664;1000;476
0.665;1000;475
0.666;1000;474
0.667;1000;476
0.668;1000;479
0.669;1000;480
0.67;1000;479
0.671;1000;478
0.672;1000;478
0.673;1000;477
0.674;1000;478
0.675;1000;482
0.676;1000;486
0.677;1000;489
0.678;1000;491
0.679;1000;493
0.68;1000;494
0.681;1000;493
0.682;1000;493
0.683;1000;493
0.684;1000;491
0.685;1000;489
0.686;1000;487
0.687;1000;484
0.688;1000;484
0.689;1000;486
0.69;1000;490
0.691;1000;494
0.692;1000;495
0.693;1000;495
0.694;1000;496
0.695;1000;495
0.696;1000;495
0.697;1000;496
0.698;1000;496
0.699;1000;496
0.7;1000;497
0.701;1000;499
0.702;1000;500
0.703;1000;500
0.704;1000;500
0.705;1000;500
0.706;1000;499
0.707;1000;498
0.708;1000;497
0.709;1000;497
0.71;1000;498
0.711;1000;498
0.712;1000;498
0.713;1000;498
0.714;1000;502
0.715;1000;505
0.716;1000;507
0.717;1000;506
0.718;1000;503
0.719;1000;501
0.72;1000;500
0.721;1000;500
0.722;1000;501
0.723;1000;502
0.724;1000;503
0.725;1000;502
0.726;1000;502
0.727;1000;502
0.728;1000;501
0.729;1000;501
0.73;1000;501
0.731;1000;501
0.732;1000;501
0.733;1000;501
0.734;1000;502
0.735;1000;504
0.736;1000;507
0.737;1000;508
0.738;1000;507
0.739;1000;506
0.74;1000;504
0.741;1000;504
0.742;1000;504
0.743;1000;503
0.744;1000;501
0.745;1000;501
0.746;1000;501
0.747;1000;504
0.748;1000;506
0.749;1000;506
0.75;1000;504
0.751;1000;504
0.752;1000;504
0.753;1000;507
0.754;1000;509
0.755;1000;512
0.756;1000;512
0.757;1000;512
0.758;1000;512
0.759;1000;511
0.76;1000;510
0.761;1000;510
0.762;1000;510
0.763;1000;512
0.764;1000;512
0.765;1000;512
0.766;1000;512
0.767;1000;513
0.768;1000;514
0.769;1000;515
0.77;1000;515
0.771;1000;515
0.772;1000;515
0.773;1000;514
0.774;1000;513
0.775;1000;516
0.776;1000;518
0.777;1000;518
0.778;1000;518
0.779;1000;519
0.78;1000;521
0.781;1000;523
0.782;1000;524
0.783;1000;526
0.784;1000;526
0.785;1000;525
0.786;1000;524
0.787;1000;525
0.788;1000;526
0.789;1000;526
0.79;1000;527
0.791;1000;528
0.792;1000;529
0.793;1000;532
0.794;1000;534
0.795;1000;536
0.796;1000;537
0.797;1000;536
0.798;1000;535
0.799;1000;535
0.8;1000;536
0.801;1000;536
0.802;1000;536
0.803;1000;537
0.804;1000;539
0.805;1000;538
0.806;1000;537
0.807;1000;536
0.808;1000;535
0.809;1000;533
0.81;1000;533
0.811;1000;536
0.812;1000;538
0.813;1000;540
0.814;1000;541
0.815;1000;544
0.816;1000;547
0.817;1000;550
0.818;1000;552
0.819;1000;551
0.82;1000;550
0.821;1000;551
0.822;1000;551
0.823;1000;552
0.824;1000;553
0.825;1000;552
0.826;1000;551
0.827;1000;551
0.828;1000;551
0.829;1000;551
0.83;1000;551
0.831;1000;551
0.832;1000;551
0.833;1000;552
0.834;1000;554
0.835;1000;556
0.836;1000;558
0.837;1000;560
0.838;1000;561
0.839;1000;561
0.84;1000;560
0.841;1000;558
0.842;1000;558
0.843;1000;558
0.844;1000;556
0.845;1000;555
0.846;1000;553
0.847;1000;552
0.848;1000;552
0.849;1000;551
0.85;1000;552
0.851;1000;553
0.852;1000;554
0.853;1000;554
0.854;1000;553
0.855;1000;551
0.856;1000;549
0.857;1000;548
0.858;1000;549
0.859;1000;551
0.86;1000;552
0.861;1000;553
0.862;1000;552
0.863;1000;550
0.864;1000;548
0.865;1000;546
0.866;1000;543
0.867;1000;542
0.868;1000;541
0.869;1000;539
0.87;1000;535
0.871;1000;532
0.872;1000;529
0.873;1000;527
0.874;1000;526
0.875;1000;526
0.876;1000;524
0.877;1000;522
0.878;1000;519
0.879;1000;517
0.88;1000;515
0.881;1000;513
0.882;1000;512
0.883;1000;510
0.884;1000;507
0.885;1000;503
0.886;1000;501
0.887;1000;499
0.888;1000;498
0.889;1000;497
0.89;1000;495
0.891;1000;494
0.892;1000;492
0.893;1000;490
0.894;1000;488
0.895;1000;487
0.896;1000;487
0.897;1000;486
0.898;1000;485
0.899;1000;483
0.9;1000;480
0.901;1000;476
0.902;1000;471
0.903;1000;466
0.904;1000;464
0.905;1000;463
0.906;1000;460
0.907;1000;457
0.908;1000;457
0.909;1000;457
0.91;1000;457
0.911;1000;457
0.912;1000;457
0.913;1000;457
0.914;1000;458
0.915;1000;460
0.916;1000;461
0.917;1000;461
0.918;1000;460
0.919;1000;458
0.92;1000;456
0.921;1000;453
0.922;1000;454
0.923;1000;456
0.924;1000;456
0.925;1000;456
0.926;1000;457
0.927;1000;456
0.928;1000;455
0.929;1000;454
0.93;1000;454
0.931;1000;454
0.932;1000;454
0.933;1000;454
0.934;1000;455
0.935;1000;456
0.936;1000;455
0.937;1000;455
0.938;1000;455
0.939;1000;457
0.94;1000;460
0.941;1000;460
0.942;1000;460
0.943;1000;461
0.944;1000;462
0.945;1000;461
0.946;1000;461
0.947;1000;461
0.948;1000;461
0.949;1000;461
0.95;1000;462
0.951;1000;463
0.952;1000;463
0.953;1000;463
0.954;1000;464
0.955;1000;465
0.956;1000;467
0.957;1000;468
0.958;1000;468
0.959;1000;468
0.96;1000;468
0.961;1000;469
0.962;1000;471
0.963;1000;472
0.964;1000;471
0.965;1000;469
0.966;1000;469
0.967;1000;467
0.968;1000;467
0.969;1000;467
0.97;1000;470
0.971;1000;474
0.972;1000;476
0.973;1000;476
0.974;1000;477
0.975;1000;479
0.976;1000;480
0.977;1000;481
0.978;1000;481
0.979;1000;480
0.98;1000;479
0.981;1000;481
0.982;1000;484
0.983;1000;487
0.984;1000;489
0.985;1000;488
0.986;1000;489
0.987;1000;489
0.988;1000;487
0.989;1000;488
0.99;1000;487
0.991;1000;485
0.992;1000;483
0.993;1000;482
0.994;1000;484
0.995;1000;489
0.996;1000;494
0.997;1000;494
0.998;1000;494
0.999;1000;494
1;1000;495
1.001;1000;496
1.002;1000;497
1.003;1000;496
1.004;1000;496
1.005;1000;494
1.006;1000;491
1.007;1000;489
1.008;1000;490
1.009;1000;490
1.01;1000;490
1.011;1000;489
1.012;1000;488
1.013;1000;487
1.014;1000;486
1.015;1000;487
1.016;1000;490
1.017;1000;497
1.018;1000;505
1.019;1000;510
1.02;1000;508
1.021;1000;507
1.022;1000;505
1.023;1000;505
1.024;1000;503
1.025;1000;499
1.026;1000;498
1.027;1000;501
1.028;1000;503
1.029;1000;503
1.03;1000;503
1.031;1000;504
1.032;1000;504
1.033;1000;505
1.034;1000;506
1.035;1000;508
1.036;1000;508
1.037;1000;507
1.038;1000;505
1.039;1000;504
1.04;1000;504
1.041;1000;503
1.042;1000;503
1.043;1000;503
1.044;1000;503
1.045;1000;502
1.046;1000;501
1.047;1000;499
1.048;1000;499
1.049;1000;499
1.05;1000;500
1.051;1000;502
1.052;1000;502
1.053;1000;505
1.054;1000;508
1.055;1000;510
1.056;1000;510
1.057;1000;509
1.058;1000;507
1.059;1000;504
1.06;1000;502
1.061;1000;502
1.062;1000;504
1.063;1000;506
1.064;1000;504
1.065;1000;502
1.066;1000;499
1.067;1000;498
1.068;1000;498
1.069;1000;499
1.07;1000;502
1.071;1000;504
1.072;1000;505
1.073;1000;507
1.074;1000;506
1.075;1000;508
1.076;1000;509
1.077;1000;512
1.078;1000;512
1.079;1000;511
1.08;1000;510
1.081;1000;507
1.082;1000;504
1.083;1000;504
1.084;1000;504
1.085;1000;505
1.086;1000;505
1.087;1000;504
1.088;1000;504
1.089;1000;504
1.09;1000;506
1.091;1000;507
1.092;1000;508
1.093;1000;510
1.094;1000;512
1.095;1000;513
1.096;1000;512
1.097;1000;511
1.098;1000;512
1.099;1000;514
1.1;1000;513
1.101;1000;512
1.102;1000;510
1.103;1000;510
1.104;1000;510
1.105;1000;508
1.106;1000;507
1.107;1000;506
1.108;1000;505
1.109;1000;504
1.11;1000;503
1.111;1000;503
1.112;1000;502
1.113;1000;502
1.114;1000;503
1.115;1000;504
1.116;1000;506
1.117;1000;507
1.118;1000;505
1.119;1000;504
1.12;1000;502
1.121;1000;500
1.122;1000;500
1.123;1000;499
1.124;1000;497
1.125;1000;498
1.126;1000;500
1.127;1000;501
1.128;1000;503
1.129;1000;504
1.13;1000;508
1.131;1000;512
1.132;1000;513
1.133;1000;513
1.134;1000;513
1.135;1000;512
1.136;1000;512
1.137;1000;513
1.138;1000;512
1.139;1000;510
1.14;1000;507
1.141;1000;504
1.142;1000;503
1.143;1000;503
1.144;1000;502
1.145;1000;501
1.146;1000;498
1.147;1000;497
1.148;1000;499
1.149;1000;501
1.15;1000;502
1.151;1000;503
1.152;1000;504
1.153;1000;503
1.154;1000;502
1.155;1000;502
1.156;1000;504
1.157;1000;506
1.158;1000;507
1.159;1000;507
1.16;1000;505
1.161;1000;503
1.162;1000;503
1.163;1000;502
1.164;1000;499
1.165;1000;496
1.166;1000;494
1.167;1000;494
1.168;1000;495
1.169;1000;496
1.17;1000;498
1.171;1000;503
1.172;1000;506
1.173;1000;507
1.174;1000;507
1.175;1000;507
1.176;1000;507
1.177;1000;508
1.178;1000;510
1.179;1000;510
1.18;1000;509
1.181;1000;507
1.182;1000;505
1.183;1000;504
1.184;1000;504
1.185;1000;503
1.186;1000;501
1.187;1000;499
1.188;1000;499
1.189;1000;501
1.19;1000;502
1.191;1000;504
1.192;1000;506
1.193;1000;507
1.194;1000;508
1.195;1000;509
1.196;1000;511
1.197;1000;511
1.198;1000;512
1.199;1000;514
1.2;1000;515
1.201;1000;514
1.202;1000;512
1.203;1000;512
1.204;1000;511
1.205;1000;509
1.206;1000;508
1.207;1000;506
1.208;1000;505
1.209;1000;505
1.21;1000;505
1.211;1000;506
1.212;1000;505
1.213;1000;505
1.214;1000;505
1.215;1000;507
1.216;1000;507
1.217;1000;509
1.218;1000;511
1.219;1000;510
1.22;1000;510
1.221;1000;510
1.222;1000;509
1.223;1000;507
1.224;1000;505
1.225;1000;505
1.226;1000;504
1.227;1000;502
1.228;1000;500
1.229;1000;500
1.23;1000;500
1.231;1000;504
1.232;1000;509
1.233;1000;510
1.234;1000;509
1.235;1000;507
1.236;1000;508
1.237;1000;508
1.238;1000;510
1.239;1000;511
1.24;1000;512
1.241;1000;510
1.242;1000;512
1.243;1000;513
1.244;1000;511
1.245;1000;508
1.246;1000;507
1.247;1000;507
1.248;1000;508
1.249;1000;509
1.25;1000;509
1.251;1000;510
1.252;1000;512
1.253;1000;512
1.254;1000;512
1.255;1000;514
1.256;1000;516
1.257;1000;516
1.258;1000;516
1.259;1000;515
1.26;1000;513
1.261;1000;513
1.262;1000;515
1.263;1000;518
1.264;1000;516
1.265;1000;512
1.266;1000;508
1.267;1000;508
1.268;1000;507
1.269;1000;507
1.27;1000;507
1.271;1000;505
1.272;1000;506
1.273;1000;507
1.274;1000;510
1.275;1000;514
1.276;1000;516
1.277;1000;516
1.278;1000;515
1.279;1000;514
1.28;1000;515
1.281;1000;515
1.282;1000;513
1.283;1000;513
1.284;1000;512
1.285;1000;511
1.286;1000;509
1.287;1000;508
1.288;1000;510
1.289;1000;510
1.29;1000;511
1.291;1000;511
1.292;1000;510
1.293;1000;511
1.294;1000;513
1.295;1000;514
1.296;1000;513
1.297;1000;512
1.298;1000;510
1.299;1000;509
1.3;1000;509
1.301;1000;510
1.302;1000;511
1.303;1000;510
1.304;1000;511
1.305;1000;513
1.306;1000;513
1.307;1000;513
1.308;1000;514
1.309;1000;516
1.31;1000;517
1.311;1000;517
1.312;1000;518
1.313;1000;519
1.314;1000;520
1.315;1000;521
1.316;1000;523
1.317;1000;522
1.318;1000;522
1.319;1000;519
1.32;1000;518
1.321;1000;517
1.322;1000;517
1.323;1000;516
1.324;1000;514
1.325;1000;511
1.326;1000;508
1.327;1000;507
1.328;1000;507
1.329;1000;509
1.33;1000;510
1.331;1000;510
1.332;1000;510
1.333;1000;511
1.334;1000;512
1.335;1000;513
1.336;1000;515
1.337;1000;517
1.338;1000;518
1.339;1000;518
1.34;1000;518
1.341;1000;519
1.342;1000;519
1.343;1000;519
1.344;1000;521
1.345;1000;521
1.346;1000;521
1.347;1000;519
1.348;1000;519
1.349;1000;520
1.35;1000;520
1.351;1000;519
1.352;1000;520
1.353;1000;519
1.354;1000;519
1.355;1000;518
1.356;1000;518
1.357;1000;518
1.358;1000;518
1.359;1000;517
1.36;1000;514
1.361;1000;512
1.362;1000;510
1.363;1000;508
1.364;1000;507
1.365;1000;505
1.366;1000;504
1.367;1000;504
1.368;1000;504
1.369;1000;504
1.37;1000;505
1.371;1000;504
1.372;1000;504
1.373;1000;507
1.374;1000;508
1.375;1000;508
1.376;1000;508
1.377;1000;507
1.378;1000;506
1.379;1000;507
1.38;1000;507
1.381;1000;508
1.382;1000;508
1.383;1000;507
1.384;1000;505
1.385;1000;502
1.386;1000;501
1.387;1000;500
1.388;1000;501
1.389;1000;502
1.39;1000;502
1.391;1000;501
1.392;1000;501
1.393;1000;501
1.394;1000;500
1.395;1000;500
1.396;1000;500
1.397;1000;499
1.398;1000;500
1.399;1000;500
1.4;1000;501
1.401;1000;504
1.402;1000;505
1.403;1000;505
1.404;1000;506
1.405;1000;507
1.406;1000;505
1.407;1000;502
1.408;1000;502
1.409;1000;505
1.41;1000;509
1.411;1000;511
1.412;1000;511
1.413;1000;511
1.414;1000;510
1.415;1000;511
1.416;1000;511
1.417;1000;510
1.418;1000;510
1.419;1000;509
1.42;1000;508
1.421;1000;508
1.422;1000;509
1.423;1000;510
1.424;1000;508
1.425;1000;506
1.426;1000;504
1.427;1000;502
1.428;1000;503
1.429;1000;502
1.43;1000;502
1.431;1000;503
1.432;1000;503
1.433;1000;507
1.434;1000;510
1.435;1000;511
1.436;1000;511
1.437;1000;512
1.438;1000;511
1.439;1000;512
1.44;1000;511
1.441;1000;509
1.442;1000;507
1.443;1000;505
1.444;1000;504
1.445;1000;500
1.446;1000;497
1.447;1000;496
1.448;1000;494
1.449;1000;491
1.45;1000;488
1.451;1000;486
1.452;1000;483
1.453;1000;482
1.454;1000;483
1.455;1000;486
1.456;1000;487
1.457;1000;490
1.458;1000;494
1.459;1000;497
1.46;1000;502
1.461;1000;510
1.462;1000;518
1.463;1000;527
1.464;1000;536
1.465;1000;543
1.466;1000;551
1.467;1000;557
1.468;1000;567
1.469;1000;579
1.47;1000;595
1.471;1000;609
1.472;1000;621
1.473;1000;632
1.474;1000;642
1.475;1000;653
1.476;1000;663
1.477;1000;670
1.478;1000;675
1.479;1000;680
1.48;1000;685
1.481;1000;688
1.482;1000;695
1.483;1000;701
1.484;1000;703
1.485;1000;701
1.486;1000;698
1.487;1000;691
1.488;1000;679
1.489;1000;662
1.49;1000;643
1.491;1000;621
1.492;1000;599
1.493;1000;576
1.494;1000;556
1.495;1000;537
1.496;1000;520
1.497;1000;506
1.498;1000;494
1.499;1000;484
1.5;1000;479
1.501;1000;478
1.502;1000;477
1.503;1000;476
1.504;1000;475
1.505;1000;475
1.506;1000;476
1.507;1000;476
1.508;1000;476
1.509;1000;475
1.51;1000;475
1.511;1000;475
1.512;1000;476
1.513;1000;477
1.514;1000;476
1.515;1000;479
1.516;1000;480
1.517;1000;480
1.518;1000;479
1.519;1000;478
1.52;1000;477
1.521;1000;477
1.522;1000;478
1.523;1000;478
1.524;1000;477
1.525;1000;477
1.526;1000;478
1.527;1000;479
1.528;1000;480
1.529;1000;481
1.53;1000;482
1.531;1000;481
1.532;1000;480
1.533;1000;481
1.534;1000;485
1.535;1000;489
1.536;1000;490
1.537;1000;491
1.538;1000;491
1.539;1000;490
1.54;1000;490
1.541;1000;490
1.542;1000;490
1.543;1000;490
1.544;1000;491
1.545;1000;490
1.546;1000;486
1.547;1000;484
1.548;1000;487
1.549;1000;490
1.55;1000;489
1.551;1000;487
1.552;1000;486
1.553;1000;484
1.554;1000;485
1.555;1000;486
1.556;1000;489
1.557;1000;490
1.558;1000;491
1.559;1000;492
1.56;1000;495
1.561;1000;497
1.562;1000;499
1.563;1000;499
1.564;1000;499
1.565;1000;499
1.566;1000;498
1.567;1000;497
1.568;1000;496
1.569;1000;496
1.57;1000;498
1.571;1000;499
1.572;1000;500
1.573;1000;501
1.574;1000;502
1.575;1000;502
1.576;1000;503
1.577;1000;504
1.578;1000;503
1.579;1000;502
1.58;1000;501
1.581;1000;501
1.582;1000;500
1.583;1000;501
1.584;1000;500
1.585;1000;500
1.586;1000;500
1.587;1000;499
1.588;1000;499
1.589;1000;499
1.59;1000;499
1.591;1000;498
1.592;1000;497
1.593;1000;501
1.594;1000;505
1.595;1000;510
1.596;1000;514
1.597;1000;514
1.598;1000;513
1.599;1000;511
1.6;1000;508
1.601;1000;508
1.602;1000;508
1.603;1000;507
1.604;1000;507
1.605;1000;507
1.606;1000;508
1.607;1000;507
1.608;1000;506
1.609;1000;507
1.61;1000;507
1.611;1000;507
1.612;1000;508
1.613;1000;510
1.614;1000;511
1.615;1000;512
1.616;1000;512
1.617;1000;510
1.618;1000;509
1.619;1000;511
1.62;1000;512
1.621;1000;512
1.622;1000;512
1.623;1000;511
1.624;1000;510
1.625;1000;508
1.626;1000;504
1.627;1000;504
1.628;1000;505
1.629;1000;506
1.63;1000;508
1.631;1000;511
1.632;1000;512
1.633;1000;514
1.634;1000;513
1.635;1000;512
1.636;1000;513
1.637;1000;513
1.638;1000;513
1.639;1000;515
1.64;1000;515
1.641;1000;515
1.642;1000;514
1.643;1000;515
1.644;1000;515
1.645;1000;515
1.646;1000;514
1.647;1000;515
1.648;1000;516
1.649;1000;519
1.65;1000;519
1.651;1000;519
1.652;1000;519
1.653;1000;519
1.654;1000;519
1.655;1000;521
1.656;1000;522
1.657;1000;523
1.658;1000;523
1.659;1000;523
1.66;1000;520
1.661;1000;518
1.662;1000;519
1.663;1000;521
1.664;1000;521
1.665;1000;520
1.666;1000;519
1.667;1000;518
1.668;1000;518
1.669;1000;516
1.67;1000;516
1.671;1000;517
1.672;1000;519
1.673;1000;521
1.674;1000;525
1.675;1000;528
1.676;1000;533
1.677;1000;537
1.678;1000;539
1.679;1000;538
1.68;1000;536
1.681;1000;535
1.682;1000;534
1.683;1000;537
1.684;1000;540
1.685;1000;540
1.686;1000;539
1.687;1000;535
1.688;1000;532
1.689;1000;534
1.69;1000;538
1.691;1000;542
1.692;1000;544
1.693;1000;545
1.694;1000;547
1.695;1000;549
1.696;1000;548
1.697;1000;549
1.698;1000;551
1.699;1000;552
1.7;1000;552
1.701;1000;553
1.702;1000;553
1.703;1000;554
1.704;1000;553
1.705;1000;552
1.706;1000;554
1.707;1000;557
1.708;1000;560
1.709;1000;560
1.71;1000;560
1.711;1000;559
1.712;1000;559
1.713;1000;560
1.714;1000;562
1.715;1000;561
1.716;1000;561
1.717;1000;562
1.718;1000;562
1.719;1000;561
1.72;1000;561
1.721;1000;559
1.722;1000;558
1.723;1000;559
1.724;1000;558
1.725;1000;554
1.726;1000;550
1.727;1000;549
1.728;1000;548
1.729;1000;548
1.73;1000;548
1.731;1000;548
1.732;1000;550
1.733;1000;553
1.734;1000;555
1.735;1000;556
1.736;1000;555
1.737;1000;552
1.738;1000;548
1.739;1000;545
1.74;1000;548
1.741;1000;551
1.742;1000;551
1.743;1000;549
1.744;1000;545
1.745;1000;542
1.746;1000;540
1.747;1000;536
1.748;1000;534
1.749;1000;533
1.75;1000;531
1.751;1000;529
1.752;1000;528
1.753;1000;528
1.754;1000;527
1.755;1000;525
1.756;1000;522
1.757;1000;519
1.758;1000;517
1.759;1000;515
1.76;1000;513
1.761;1000;510
1.762;1000;505
1.763;1000;503
1.764;1000;500
1.765;1000;495
1.766;1000;492
1.767;1000;488
1.768;1000;485
1.769;1000;482
1.77;1000;480
1.771;1000;479
1.772;1000;476
1.773;1000;475
1.774;1000;474
1.775;1000;473
1.776;1000;473
1.777;1000;471
1.778;1000;469
1.779;1000;466
1.78;1000;462
1.781;1000;461
1.782;1000;461
1.783;1000;461
1.784;1000;460
1.785;1000;460
1.786;1000;459
1.787;1000;457
1.788;1000;454
1.789;1000;452
1.79;1000;451
1.791;1000;451
1.792;1000;452
1.793;1000;454
1.794;1000;454
1.795;1000;454
1.796;1000;455
1.797;1000;455
1.798;1000;453
1.799;1000;449
1.8;1000;448
1.801;1000;447
1.802;1000;447
1.803;1000;445
1.804;1000;446
1.805;1000;445
1.806;1000;445
1.807;1000;446
1.808;1000;448
1.809;1000;451
1.81;1000;453
1.811;1000;454
1.812;1000;454
1.813;1000;454
1.814;1000;455
1.815;1000;458
1.816;1000;458
1.817;1000;456
1.818;1000;456
1.819;1000;456
1.82;1000;454
1.821;1000;451
1.822;1000;448
1.823;1000;449
1.824;1000;452
1.825;1000;455
1.826;1000;457
1.827;1000;457
1.828;1000;455
1.829;1000;456
1.83;1000;458
1.831;1000;460
1.832;1000;460
1.833;1000;460
1.834;1000;460
1.835;1000;462
1.836;1000;463
1.837;1000;463
1.838;1000;461
1.839;1000;458
1.84;1000;459
1.841;1000;463
1.842;1000;467
1.843;1000;469
1.844;1000;470
1.845;1000;470
1.846;1000;467
1.847;1000;467
1.848;1000;469
1.849;1000;471
1.85;1000;471
1.851;1000;470
1.852;1000;471
1.853;1000;472
1.854;1000;476
1.855;1000;478
1.856;1000;479
1.857;1000;479
1.858;1000;478
1.859;1000;478
1.86;1000;476
1.861;1000;476
1.862;1000;477
1.863;1000;477
1.864;1000;477
1.865;1000;478
1.866;1000;477
1.867;1000;476
1.868;1000;476
1.869;1000;475
1.87;1000;477
1.871;1000;482
1.872;1000;484
1.873;1000;485
1.874;1000;486
1.875;1000;486
1.876;1000;487
1.877;1000;488
1.878;1000;489
1.879;1000;492
1.88;1000;493
1.881;1000;492
1.882;1000;489
1.883;1000;487
1.884;1000;484
1.885;1000;481
1.886;1000;479
1.887;1000;478
1.888;1000;481
1.889;1000;484
1.89;1000;487
1.891;1000;489
1.892;1000;489
1.893;1000;489
1.894;1000;489
1.895;1000;490
1.896;1000;492
1.897;1000;496
1.898;1000;496
1.899;1000;495
1.9;1000;493
1.901;1000;491
1.902;1000;489
1.903;1000;489
1.904;1000;489
1.905;1000;489
1.906;1000;489
1.907;1000;489
1.908;1000;490
1.909;1000;490
1.91;1000;491
1.911;1000;492
1.912;1000;493
1.913;1000;495
1.914;1000;494
1.915;1000;494
1.916;1000;495
1.917;1000;495
1.918;1000;495
1.919;1000;496
1.92;1000;497
1.921;1000;498
1.922;1000;499
1.923;1000;501
1.924;1000;500
1.925;1000;499
1.926;1000;499
1.927;1000;497
1.928;1000;497
1.929;1000;496
1.93;1000;496
1.931;1000;496
1.932;1000;496
1.933;1000;496
1.934;1000;496
1.935;1000;498
1.936;1000;499
1.937;1000;500
1.938;1000;500
1.939;1000;500
1.94;1000;499
1.941;1000;498
1.942;1000;497
1.943;1000;496
1.944;1000;494
1.945;1000;492
1.946;1000;492
1.947;1000;492
1.948;1000;491
1.949;1000;492
1.95;1000;491
1.951;1000;491
1.952;1000;491
1.953;1000;492
1.954;1000;491
1.955;1000;492
1.956;1000;496
1.957;1000;502
1.958;1000;506
1.959;1000;508
1.96;1000;507
1.961;1000;506
1.962;1000;504
1.963;1000;501
1.964;1000;500
1.965;1000;499
1.966;1000;499
1.967;1000;497
1.968;1000;497
1.969;1000;499
1.97;1000;499
1.971;1000;500
1.972;1000;502
1.973;1000;505
1.974;1000;505
1.975;1000;506
1.976;1000;506
1.977;1000;505
1.978;1000;506
1.979;1000;506
1.98;1000;505
1.981;1000;502
1.982;1000;501
1.983;1000;501
1.984;1000;501
1.985;1000;500
1.986;1000;500
1.987;1000;500
1.988;1000;500
1.989;1000;500
1.99;1000;499
1.991;1000;501
1.992;1000;500
1.993;1000;499
1.994;1000;501
1.995;1000;504
1.996;1000;505
1.997;1000;506
1.998;1000;509
1.999;1000;510
2;1000;508
2.001;1000;507
2.002;1000;506
2.003;1000;504
2.004;1000;501
2.005;1000;499
2.006;1000;497
2.007;1000;496
2.008;1000;497
2.009;1000;498
2.01;1000;499
2.011;1000;503
2.012;1000;505
2.013;1000;506
2.014;1000;505
2.015;1000;507
2.016;1000;507
2.017;1000;507
2.018;1000;509
2.019;1000;511
2.02;1000;512
2.021;1000;510
2.022;1000;506
2.023;1000;504
2.024;1000;503
2.025;1000;500
2.026;1000;501
2.027;1000;504
2.028;1000;505
2.029;1000;505
2.03;1000;504
2.031;1000;502
2.032;1000;501
2.033;1000;501
2.034;1000;501
2.035;1000;502
2.036;1000;502
2.037;1000;503
2.038;1000;507
2.039;1000;509
2.04;1000;508
2.041;1000;505
2.042;1000;500
2.043;1000;500
2.044;1000;502
2.045;1000;505
2.046;1000;507
2.047;1000;508
2.048;1000;509
2.049;1000;508
2.05;1000;509
2.051;1000;510
2.052;1000;509
2.053;1000;508
2.054;1000;506
2.055;1000;506
2.056;1000;507
2.057;1000;507
2.058;1000;507
2.059;1000;507
2.06;1000;507
2.061;1000;507
2.062;1000;507
2.063;1000;507
2.064;1000;506
2.065;1000;504
2.066;1000;501
2.067;1000;500
2.068;1000;502
2.069;1000;503
2.07;1000;505
2.071;1000;506
2.072;1000;506
2.073;1000;507
2.074;1000;508
2.075;1000;510
2.076;1000;511
2.077;1000;512
2.078;1000;511
2.079;1000;510
2.08;1000;509
2.081;1000;508
2.082;1000;507
2.083;1000;507
2.084;1000;504
2.085;1000;503
2.086;1000;502
2.087;1000;503
2.088;1000;503
2.089;1000;502
2.09;1000;502
2.091;1000;501
2.092;1000;500
2.093;1000;504
2.094;1000;505
2.095;1000;507
2.096;1000;508
2.097;1000;511
2.098;1000;512
2.099;1000;512
2.1;1000;511
2.101;1000;511
2.102;1000;509
2.103;1000;508
2.104;1000;508
2.105;1000;507
2.106;1000;505
2.107;1000;506
2.108;1000;507
2.109;1000;507
2.11;1000;508
2.111;1000;509
2.112;1000;509
2.113;1000;506
2.114;1000;507
2.115;1000;509
2.116;1000;512
2.117;1000;515
2.118;1000;514
2.119;1000;513
2.12;1000;511
2.121;1000;508
2.122;1000;506
2.123;1000;504
2.124;1000;502
2.125;1000;503
2.126;1000;505
2.127;1000;506
2.128;1000;507
2.129;1000;504
2.13;1000;503
2.131;1000;503
2.132;1000;506
2.133;1000;509
2.134;1000;511
2.135;1000;511
2.136;1000;512
2.137;1000;514
2.138;1000;513
2.139;1000;513
2.14;1000;513
2.141;1000;513
2.142;1000;510
2.143;1000;507
2.144;1000;503
2.145;1000;502
2.146;1000;502
2.147;1000;505
2.148;1000;510
2.149;1000;513
2.15;1000;514
2.151;1000;513
2.152;1000;512
2.153;1000;511
2.154;1000;511
2.155;1000;512
2.156;1000;512
2.157;1000;511
2.158;1000;511
2.159;1000;510
2.16;1000;508
2.161;1000;507
2.162;1000;506
2.163;1000;508
2.164;1000;510
2.165;1000;510
2.166;1000;508
2.167;1000;505
2.168;1000;505
2.169;1000;504
2.17;1000;504
2.171;1000;504
2.172;1000;506
2.173;1000;508
2.174;1000;509
2.175;1000;512
2.176;1000;515
2.177;1000;516
2.178;1000;517
2.179;1000;517
2.18;1000;519
2.181;1000;521
2.182;1000;522
2.183;1000;520
2.184;1000;518
2.185;1000;516
2.186;1000;515
2.187;1000;516
2.188;1000;518
2.189;1000;519
2.19;1000;516
2.191;1000;515
2.192;1000;514
2.193;1000;515
2.194;1000;515
2.195;1000;515
2.196;1000;515
2.197;1000;515
2.198;1000;514
2.199;1000;513
2.2;1000;512
2.201;1000;511
2.202;1000;511
2.203;1000;509
2.204;1000;507
2.205;1000;506
2.206;1000;505
2.207;1000;506
2.208;1000;507
2.209;1000;508
2.21;1000;510
2.211;1000;514
2.212;1000;518
2.213;1000;520
2.214;1000;520
2.215;1000;519
2.216;1000;519
2.217;1000;520
2.218;1000;521
2.219;1000;521
2.22;1000;519
2.221;1000;520
2.222;1000;521
2.223;1000;524
2.224;1000;523
2.225;1000;519
2.226;1000;514
2.227;1000;512
2.228;1000;512
2.229;1000;512
2.23;1000;516
2.231;1000;519
2.232;1000;522
2.233;1000;523
2.234;1000;521
2.235;1000;516
2.236;1000;515
2.237;1000;515
2.238;1000;514
2.239;1000;514
2.24;1000;515
2.241;1000;513
2.242;1000;510
2.243;1000;506
2.244;1000;502
2.245;1000;499
2.246;1000;497
2.247;1000;496
2.248;1000;496
2.249;1000;497
2.25;1000;499
2.251;1000;500
2.252;1000;500
2.253;1000;500
2.254;1000;499
2.255;1000;501
2.256;1000;502
2.257;1000;503
2.258;1000;503
2.259;1000;503
2.26;1000;502
2.261;1000;500
2.262;1000;501
2.263;1000;499
2.264;1000;502
2.265;1000;504
2.266;1000;502
2.267;1000;500
2.268;1000;499
2.269;1000;498
2.27;1000;499
2.271;1000;499
2.272;1000;500
2.273;1000;499
2.274;1000;499
2.275;1000;499
2.276;1000;502
2.277;1000;505
2.278;1000;508
2.279;1000;507
2.28;1000;507
2.281;1000;505
2.282;1000;505
2.283;1000;508
2.284;1000;510
2.285;1000;508
2.286;1000;507
2.287;1000;506
2.288;1000;506
2.289;1000;509
2.29;1000;512
2.291;1000;514
2.292;1000;515
2.293;1000;515
2.294;1000;514
2.295;1000;514
2.296;1000;515
2.297;1000;515
2.298;1000;516
2.299;1000;515
2.3;1000;514
2.301;1000;513
2.302;1000;512
2.303;1000;511
2.304;1000;509
2.305;1000;506
2.306;1000;503
2.307;1000;503
2.308;1000;505
2.309;1000;507
2.31;1000;507
2.311;1000;507
2.312;1000;507
2.313;1000;505
2.314;1000;505
2.315;1000;505
2.316;1000;505
2.317;1000;503
2.318;1000;503
2.319;1000;499
2.32;1000;494
2.321;1000;488
2.322;1000;483
2.323;1000;481
2.324;1000;478
2.325;1000;476
2.326;1000;478
2.327;1000;483
2.328;1000;489
2.329;1000;497
2.33;1000;500
2.331;1000;504
2.332;1000;512
2.333;1000;520
2.334;1000;531
2.335;1000;541
2.336;1000;554
2.337;1000;565
2.338;1000;573
2.339;1000;582
2.34;1000;591
2.341;1000;602
2.342;1000;614
2.343;1000;626
2.344;1000;634
2.345;1000;640
2.346;1000;646
2.347;1000;654
2.348;1000;662
2.349;1000;668
2.35;1000;675
2.351;1000;684
2.352;1000;692
2.353;1000;699
2.354;1000;702
2.355;1000;704
2.356;1000;702
2.357;1000;696
2.358;1000;687
2.359;1000;672
2.36;1000;651
2.361;1000;629
2.362;1000;608
2.363;1000;580
2.364;1000;553
2.365;1000;530
2.366;1000;512
2.367;1000;497
2.368;1000;486
2.369;1000;479
2.37;1000;475
2.371;1000;472
2.372;1000;471
2.373;1000;472
2.374;1000;473
2.375;1000;475
2.376;1000;475
2.377;1000;476
2.378;1000;476
2.379;1000;477
2.38;1000;478
2.381;1000;476
2.382;1000;476
2.383;1000;480
2.384;1000;481
2.385;1000;483
2.386;1000;485
2.387;1000;485
2.388;1000;484
2.389;1000;483
2.39;1000;484
2.391;1000;486
2.392;1000;486
2.393;1000;486
2.394;1000;487
2.395;1000;488
2.396;1000;489
2.397;1000;490
2.398;1000;489
2.399;1000;489
2.4;1000;490
2.401;1000;492
2.402;1000;493
2.403;1000;493
2.404;1000;493
2.405;1000;493
2.406;1000;491
2.407;1000;490
2.408;1000;488
2.409;1000;487
2.41;1000;487
2.411;1000;490
2.412;1000;495
2.413;1000;501
2.414;1000;504
2.415;1000;505
2.416;1000;507
2.417;1000;508
2.418;1000;508
2.419;1000;507
2.42;1000;506
2.421;1000;506
2.422;1000;506
2.423;1000;507
2.424;1000;507
2.425;1000;508
2.426;1000;507
2.427;1000;505
2.428;1000;504
2.429;1000;504
2.43;1000;505
2.431;1000;508
2.432;1000;507
2.433;1000;508
2.434;1000;508
2.435;1000;509
2.436;1000;510
2.437;1000;510
2.438;1000;511
2.439;1000;511
2.44;1000;510
2.441;1000;511
2.442;1000;511
2.443;1000;510
2.444;1000;509
2.445;1000;510
2.446;1000;512
2.447;1000;513
2.448;1000;513
2.449;1000;514
2.45;1000;514
2.451;1000;513
2.452;1000;513
2.453;1000;513
2.454;1000;515
2.455;1000;516
2.456;1000;517
2.457;1000;519
2.458;1000;521
2.459;1000;522
2.46;1000;522
2.461;1000;522
2.462;1000;523
2.463;1000;523
2.464;1000;522
2.465;1000;521
2.466;1000;520
2.467;1000;520
2.468;1000;521
2.469;1000;523
2.47;1000;523
2.471;1000;523
2.472;1000;522
2.473;1000;521
2.474;1000;521
2.475;1000;522
2.476;1000;521
2.477;1000;521
2.478;1000;521
2.479;1000;522
2.48;1000;522
2.481;1000;525
2.482;1000;527
2.483;1000;528
2.484;1000;527
2.485;1000;526
2.486;1000;527
2.487;1000;526
2.488;1000;524
2.489;1000;523
2.49;1000;524
2.491;1000;527
2.492;1000;528
2.493;1000;530
2.494;1000;531
2.495;1000;532
2.496;1000;531
2.497;1000;532
2.498;1000;533
2.499;1000;535
2.5;1000;534
2.501;1000;531
2.502;1000;530
2.503;1000;531
2.504;1000;531
2.505;1000;528
2.506;1000;525
2.507;1000;525
2.508;1000;525
2.509;1000;525
2.51;1000;525
2.511;1000;528
2.512;1000;530
2.513;1000;533
2.514;1000;535
2.515;1000;537
2.516;1000;538
2.517;1000;539
2.518;1000;539
2.519;1000;539
2.52;1000;539
2.521;1000;537
2.522;1000;534
2.523;1000;533
2.524;1000;532
2.525;1000;533
2.526;1000;535
2.527;1000;537
2.528;1000;541
2.529;1000;543
2.53;1000;543
2.531;1000;543
2.532;1000;543
2.533;1000;542
2.534;1000;543
2.535;1000;545
2.536;1000;547
2.537;1000;549
2.538;1000;550
2.539;1000;552
2.54;1000;555
2.541;1000;555
2.542;1000;555
2.543;1000;554
2.544;1000;552
2.545;1000;551
2.546;1000;551
2.547;1000;552
2.548;1000;553
2.549;1000;553
2.55;1000;553
2.551;1000;553
2.552;1000;555
2.553;1000;555
2.554;1000;556
2.555;1000;558
2.556;1000;561
2.557;1000;561
2.558;1000;564
2.559;1000;564
2.56;1000;562
2.561;1000;562
2.562;1000;561
2.563;1000;559
2.564;1000;557
2.565;1000;556
2.566;1000;554
2.567;1000;555
2.568;1000;558
2.569;1000;561
2.57;1000;565
2.571;1000;567
2.572;1000;566
2.573;1000;567
2.574;1000;568
2.575;1000;570
2.576;1000;572
2.577;1000;573
2.578;1000;572
2.579;1000;572
2.58;1000;572
2.581;1000;572
2.582;1000;572
2.583;1000;571
2.584;1000;568
2.585;1000;564
2.586;1000;561
2.587;1000;559
2.588;1000;559
2.589;1000;559
2.59;1000;560
2.591;1000;559
2.592;1000;560
2.593;1000;561
2.594;1000;563
2.595;1000;565
2.596;1000;565
2.597;1000;564
2.598;1000;563
2.599;1000;563
2.6;1000;563
2.601;1000;561
2.602;1000;558
2.603;1000;556
2.604;1000;554
2.605;1000;551
2.606;1000;550
2.607;1000;547
2.608;1000;547
2.609;1000;545
2.61;1000;545
2.611;1000;546
2.612;1000;546
2.613;1000;546
2.614;1000;546
2.615;1000;545
2.616;1000;544
2.617;1000;542
2.618;1000;541
2.619;1000;540
2.62;1000;536
2.621;1000;533
2.622;1000;527
2.623;1000;522
2.624;1000;519
2.625;1000;519
2.626;1000;518
2.627;1000;515
2.628;1000;512
2.629;1000;508
2.63;1000;504
2.631;1000;501
2.632;1000;499
2.633;1000;499
2.634;1000;498
2.635;1000;499
2.636;1000;496
2.637;1000;494
2.638;1000;492
2.639;1000;490
2.64;1000;487
2.641;1000;483
2.642;1000;480
2.643;1000;480
2.644;1000;478
2.645;1000;476
2.646;1000;474
2.647;1000;472
2.648;1000;470
2.649;1000;467
2.65;1000;465
2.651;1000;463
2.652;1000;461
2.653;1000;461
2.654;1000;460
2.655;1000;458
2.656;1000;455
2.657;1000;452
2.658;1000;451
2.659;1000;451
2.66;1000;451
2.661;1000;451
2.662;1000;452
2.663;1000;450
2.664;1000;449
2.665;1000;447
2.666;1000;445
2.667;1000;444
2.668;1000;443
2.669;1000;442
2.67;1000;444
2.671;1000;444
2.672;1000;444
2.673;1000;444
2.674;1000;445
2.675;1000;445
2.676;1000;447
2.677;1000;448
2.678;1000;449
2.679;1000;449
2.68;1000;448
2.681;1000;449
2.682;1000;449
2.683;1000;449
2.684;1000;448
2.685;1000;448
2.686;1000;446
2.687;1000;445
2.688;1000;447
2.689;1000;448
2.69;1000;449
2.691;1000;448
2.692;1000;449
2.693;1000;450
2.694;1000;452
2.695;1000;453
2.696;1000;454
2.697;1000;457
2.698;1000;458
2.699;1000;458
2.7;1000;458
2.701;1000;457
2.702;1000;458
2.703;1000;459
2.704;1000;460
2.705;1000;460
2.706;1000;460
2.707;1000;458
2.708;1000;456
2.709;1000;455
2.71;1000;456
2.711;1000;455
2.712;1000;455
2.713;1000;457
2.714;1000;459
2.715;1000;460
2.716;1000;461
2.717;1000;463
2.718;1000;465
2.719;1000;465
2.72;1000;465
2.721;1000;464
2.722;1000;463
2.723;1000;465
2.724;1000;468
2.725;1000;471
2.726;1000;471
2.727;1000;470
2.728;1000;471
2.729;1000;471
2.73;1000;472
2.731;1000;472
2.732;1000;472
2.733;1000;471
2.734;1000;472
2.735;1000;476
2.736;1000;478
2.737;1000;479
2.738;1000;481
2.739;1000;481
2.74;1000;481
2.741;1000;480
2.742;1000;479
2.743;1000;478
2.744;1000;477
2.745;1000;476
2.746;1000;478
2.747;1000;479
2.748;1000;481
2.749;1000;482
2.75;1000;480
2.751;1000;478
2.752;1000;477
2.753;1000;477
2.754;1000;480
2.755;1000;481
2.756;1000;482
2.757;1000;482
2.758;1000;484
2.759;1000;483
2.76;1000;482
2.761;1000;483
2.762;1000;485
2.763;1000;486
2.764;1000;485
2.765;1000;483
2.766;1000;482
2.767;1000;481
2.768;1000;482
2.769;1000;484
2.77;1000;486
2.771;1000;487
2.772;1000;487
2.773;1000;487
2.774;1000;489
2.775;1000;488
2.776;1000;488
2.777;1000;490
2.778;1000;493
2.779;1000;495
2.78;1000;496
2.781;1000;495
2.782;1000;494
2.783;1000;492
2.784;1000;490
2.785;1000;489
2.786;1000;491
2.787;1000;493
2.788;1000;493
2.789;1000;492
2.79;1000;490
2.791;1000;488
2.792;1000;486
2.793;1000;486
2.794;1000;488
2.795;1000;492
2.796;1000;496
2.797;1000;499
2.798;1000;499
2.799;1000;498
2.8;1000;498
2.801;1000;499
2.802;1000;497
2.803;1000;495
2.804;1000;495
2.805;1000;495
2.806;1000;493
2.807;1000;492
2.808;1000;492
2.809;1000;491
2.81;1000;491
2.811;1000;490
2.812;1000;491
2.813;1000;493
2.814;1000;493
2.815;1000;494
2.816;1000;496
2.817;1000;499
2.818;1000;501
2.819;1000;503
2.82;1000;504
2.821;1000;503
2.822;1000;502
2.823;1000;500
2.824;1000;498
2.825;1000;497
2.826;1000;498
2.827;1000;499
2.828;1000;500
2.829;1000;500
2.83;1000;501
2.831;1000;503
2.832;1000;504
2.833;1000;504
2.834;1000;504
2.835;1000;505
2.836;1000;506
2.837;1000;505
2.838;1000;506
2.839;1000;509
2.84;1000;511
2.841;1000;512
2.842;1000;512
2.843;1000;508
2.844;1000;505
2.845;1000;503
2.846;1000;501
2.847;1000;500
2.848;1000;499
2.849;1000;502
2.85;1000;504
2.851;1000;505
2.852;1000;504
2.853;1000;504
2.854;1000;504
2.855;1000;504
2.856;1000;505
2.857;1000;506
2.858;1000;507
2.859;1000;509
2.86;1000;509
2.861;1000;510
2.862;1000;509
2.863;1000;508
2.864;1000;506
2.865;1000;503
2.866;1000;500
2.867;1000;501
2.868;1000;502
2.869;1000;504
2.87;1000;507
2.871;1000;508
2.872;1000;508
2.873;1000;509
2.874;1000;510
2.875;1000;510
2.876;1000;510
2.877;1000;510
2.878;1000;512
2.879;1000;514
2.88;1000;514
2.881;1000;512
2.882;1000;510
2.883;1000;507
2.884;1000;504
2.885;1000;501
2.886;1000;500
2.887;1000;500
2.888;1000;502
2.889;1000;504
2.89;1000;508
2.891;1000;512
2.892;1000;515
2.893;1000;515
2.894;1000;515
2.895;1000;513
2.896;1000;515
2.897;1000;516
2.898;1000;519
2.899;1000;519
2.9;1000;517
2.901;1000;516
2.902;1000;514
2.903;1000;512
2.904;1000;510
2.905;1000;508
2.906;1000;507
2.907;1000;506
2.908;1000;506
2.909;1000;508
2.91;1000;510
2.911;1000;507
2.912;1000;506
2.913;1000;507
2.914;1000;507
2.915;1000;508
2.916;1000;510
2.917;1000;513
2.918;1000;515
2.919;1000;514
2.92;1000;514
2.921;1000;512
2.922;1000;512
2.923;1000;512
2.924;1000;513
2.925;1000;515
2.926;1000;514
2.927;1000;511
2.928;1000;509
2.929;1000;509
2.93;1000;510
2.931;1000;509
2.932;1000;510
2.933;1000;511
2.934;1000;512
2.935;1000;511
2.936;1000;511
2.937;1000;511
2.938;1000;511
2.939;1000;512
2.94;1000;512
2.941;1000;513
2.942;1000;513
2.943;1000;512
2.944;1000;510
2.945;1000;509
2.946;1000;509
2.947;1000;507
2.948;1000;505
2.949;1000;504
2.95;1000;504
2.951;1000;505
2.952;1000;509
2.953;1000;512
2.954;1000;513
2.955;1000;513
2.956;1000;514
2.957;1000;515
2.958;1000;518
2.959;1000;519
2.96;1000;517
2.961;1000;515
2.962;1000;515
2.963;1000;516
2.964;1000;515
2.965;1000;513
2.966;1000;512
2.967;1000;512
2.968;1000;511
2.969;1000;511
2.97;1000;512
2.971;1000;513
2.972;1000;514
2.973;1000;517
2.974;1000;518
2.975;1000;519
2.976;1000;519
2.977;1000;518
2.978;1000;518
2.979;1000;519
2.98;1000;519
2.981;1000;518
2.982;1000;516
2.983;1000;517
2.984;1000;517
2.985;1000;519
2.986;1000;520
2.987;1000;519
2.988;1000;519
2.989;1000;519
2.99;1000;520
2.991;1000;521
2.992;1000;520
2.993;1000;521
2.994;1000;522
2.995;1000;523
2.996;1000;521
2.997;1000;519
2.998;1000;519
2.999;1000;519
3;1000;521
3.001;1000;524
3.002;1000;525
3.003;1000;525
3.004;1000;524
3.005;1000;521
3.006;1000;519
3.007;1000;517
3.008;1000;516
3.009;1000;521
3.01;1000;525
3.011;1000;525
3.012;1000;523
3.013;1000;520
3.014;1000;518
3.015;1000;518
3.016;1000;517
3.017;1000;517
3.018;1000;516
3.019;1000;514
3.02;1000;512
3.021;1000;511
3.022;1000;511
3.023;1000;510
3.024;1000;509
3.025;1000;505
3.026;1000;503
3.027;1000;503
3.028;1000;501
3.029;1000;499
3.03;1000;498
3.031;1000;497
3.032;1000;496
3.033;1000;497
3.034;1000;499
3.035;1000;499
3.036;1000;500
3.037;1000;501
3.038;1000;503
3.039;1000;503
3.04;1000;504
3.041;1000;504
3.042;1000;503
3.043;1000;502
3.044;1000;499
3.045;1000;497
3.046;1000;496
3.047;1000;494
3.048;1000;495
3.049;1000;495
3.05;1000;495
3.051;1000;495
3.052;1000;494
3.053;1000;495
3.054;1000;497
3.055;1000;498
3.056;1000;498
3.057;1000;500
3.058;1000;503
3.059;1000;503
3.06;1000;503
3.061;1000;504
3.062;1000;503
3.063;1000;501
3.064;1000;500
3.065;1000;499
3.066;1000;500
3.067;1000;497
3.068;1000;496
3.069;1000;495
3.07;1000;493
3.071;1000;494
3.072;1000;496
3.073;1000;499
3.074;1000;500
3.075;1000;501
3.076;1000;503
3.077;1000;504
3.078;1000;504
3.079;1000;504
3.08;1000;504
3.081;1000;504
3.082;1000;502
3.083;1000;500
3.084;1000;497
3.085;1000;494
3.086;1000;492
3.087;1000;492
3.088;1000;495
3.089;1000;496
3.09;1000;498
3.091;1000;499
3.092;1000;500
3.093;1000;502
3.094;1000;504
3.095;1000;505
3.096;1000;505
3.097;1000;504
3.098;1000;503
3.099;1000;500
3.1;1000;499
3.101;1000;498
3.102;1000;498
3.103;1000;498
3.104;1000;495
3.105;1000;491
3.106;1000;488
3.107;1000;486
3.108;1000;484
3.109;1000;481
3.11;1000;481
3.111;1000;479
3.112;1000;480
3.113;1000;482
3.114;1000;486
3.115;1000;488
3.116;1000;494
3.117;1000;500
3.118;1000;509
3.119;1000;520
3.12;1000;528
3.121;1000;537
3.122;1000;544
3.123;1000;553
3.124;1000;563
3.125;1000;574
3.126;1000;584
3.127;1000;595
3.128;1000;608
3.129;1000;621
3.13;1000;635
3.131;1000;644
3.132;1000;648
3.133;1000;655
3.134;1000;663
3.135;1000;669
3.136;1000;675
3.137;1000;679
3.138;1000;680
3.139;1000;681
3.14;1000;679
3.141;1000;677
3.142;1000;672
3.143;1000;664
3.144;1000;651
3.145;1000;631
3.146;1000;607
3.147;1000;583
3.148;1000;555
3.149;1000;524
3.15;1000;497
3.151;1000;477
3.152;1000;463
3.153;1000;455
3.154;1000;449
3.155;1000;446
3.156;1000;447
3.157;1000;448
3.158;1000;450
3.159;1000;455
3.16;1000;461
3.161;1000;468
3.162;1000;474
3.163;1000;476
3.164;1000;475
3.165;1000;473
3.166;1000;472
3.167;1000;475
3.168;1000;474
3.169;1000;475
3.17;1000;476
3.171;1000;476
3.172;1000;477
3.173;1000;477
3.174;1000;477
3.175;1000;478
3.176;1000;477
3.177;1000;478
3.178;1000;478
3.179;1000;478
3.18;1000;479
3.181;1000;479
3.182;1000;478
3.183;1000;478
3.184;1000;479
3.185;1000;479
3.186;1000;478
3.187;1000;478
3.188;1000;479
3.189;1000;481
3.19;1000;482
3.191;1000;484
3.192;1000;487
3.193;1000;492
3.194;1000;495
3.195;1000;496
3.196;1000;496
3.197;1000;493
3.198;1000;491
3.199;1000;491
3.2;1000;489
3.201;1000;488
3.202;1000;489
3.203;1000;489
3.204;1000;487
3.205;1000;488
3.206;1000;488
3.207;1000;488
3.208;1000;488
3.209;1000;487
3.21;1000;490
3.211;1000;492
3.212;1000;493
3.213;1000;495
3.214;1000;496
3.215;1000;497
3.216;1000;498
3.217;1000;500
3.218;1000;501
3.219;1000;502
3.22;1000;503
3.221;1000;502
3.222;1000;500
3.223;1000;496
3.224;1000;493
3.225;1000;492
3.226;1000;492
3.227;1000;493
3.228;1000;494
3.229;1000;493
3.23;1000;493
3.231;1000;493
3.232;1000;492
3.233;1000;492
3.234;1000;492
3.235;1000;494
3.236;1000;497
3.237;1000;499
3.238;1000;501
3.239;1000;504
3.24;1000;505
3.241;1000;505
3.242;1000;504
3.243;1000;501
3.244;1000;499
3.245;1000;498
3.246;1000;496
3.247;1000;494
3.248;1000;497
3.249;1000;499
3.25;1000;502
3.251;1000;501
3.252;1000;502
3.253;1000;504
3.254;1000;504
3.255;1000;504
3.256;1000;505
3.257;1000;504
3.258;1000;504
3.259;1000;501
3.26;1000;499
3.261;1000;502
3.262;1000;506
3.263;1000;509
3.264;1000;508
3.265;1000;505
3.266;1000;504
3.267;1000;504
3.268;1000;505
3.269;1000;507
3.27;1000;510
3.271;1000;510
3.272;1000;508
3.273;1000;507
3.274;1000;506
3.275;1000;507
3.276;1000;508
3.277;1000;508
3.278;1000;509
3.279;1000;509
3.28;1000;510
3.281;1000;509
3.282;1000;508
3.283;1000;507
3.284;1000;506
3.285;1000;508
3.286;1000;508
3.287;1000;510
3.288;1000;512
3.289;1000;513
3.29;1000;514
3.291;1000;513
3.292;1000;512
3.293;1000;512
3.294;1000;512
3.295;1000;513
3.296;1000;515
3.297;1000;517
3.298;1000;518
3.299;1000;518
3.3;1000;519
3.301;1000;519
3.302;1000;518
3.303;1000;517
3.304;1000;519
3.305;1000;520
3.306;1000;519
3.307;1000;519
3.308;1000;520
3.309;1000;522
3.31;1000;524
3.311;1000;524
3.312;1000;525
3.313;1000;527
3.314;1000;529
3.315;1000;531
3.316;1000;532
3.317;1000;531
3.318;1000;531
3.319;1000;529
3.32;1000;529
3.321;1000;530
3.322;1000;531
3.323;1000;531
3.324;1000;529
3.325;1000;529
3.326;1000;529
3.327;1000;529
3.328;1000;530
3.329;1000;531
3.33;1000;532
3.331;1000;533
3.332;1000;535
3.333;1000;537
3.334;1000;539
3.335;1000;540
3.336;1000;543
3.337;1000;544
3.338;1000;546
3.339;1000;547
3.34;1000;548
3.341;1000;549
3.342;1000;548
3.343;1000;549
3.344;1000;549
3.345;1000;547
3.346;1000;547
3.347;1000;550
3.348;1000;553
3.349;1000;556
3.35;1000;556
3.351;1000;556
3.352;1000;557
3.353;1000;559
3.354;1000;561
3.355;1000;561
3.356;1000;561
3.357;1000;560
3.358;1000;561
3.359;1000;562
3.36;1000;565
3.361;1000;566
3.362;1000;565
3.363;1000;564
3.364;1000;561
3.365;1000;559
3.366;1000;558
3.367;1000;559
3.368;1000;559
3.369;1000;559
3.37;1000;560
3.371;1000;559
3.372;1000;560
3.373;1000;562
3.374;1000;564
3.375;1000;565
3.376;1000;564
3.377;1000;567
3.378;1000;568
3.379;1000;568
3.38;1000;565
3.381;1000;563
3.382;1000;559
3.383;1000;558
3.384;1000;556
3.385;1000;555
3.386;1000;554
3.387;1000;554
3.388;1000;555
3.389;1000;557
3.39;1000;556
3.391;1000;553
3.392;1000;551
3.393;1000;549
3.394;1000;550
3.395;1000;551
3.396;1000;552
3.397;1000;553
3.398;1000;553
3.399;1000;551
3.4;1000;549
3.401;1000;547
3.402;1000;545
3.403;1000;541
3.404;1000;536
3.405;1000;531
3.406;1000;526
3.407;1000;521
3.408;1000;518
3.409;1000;515
3.41;1000;515
3.411;1000;516
3.412;1000;515
3.413;1000;513
3.414;1000;511
3.415;1000;509
3.416;1000;507
3.417;1000;504
3.418;1000;501
3.419;1000;498
3.42;1000;496
3.421;1000;492
3.422;1000;490
3.423;1000;487
3.424;1000;483
3.425;1000;480
3.426;1000;477
3.427;1000;476
3.428;1000;475
3.429;1000;473
3.43;1000;471
3.431;1000;469
3.432;1000;467
3.433;1000;465
3.434;1000;462
3.435;1000;461
3.436;1000;459
3.437;1000;457
3.438;1000;455
3.439;1000;454
3.44;1000;453
3.441;1000;453
3.442;1000;452
3.443;1000;450
3.444;1000;448
3.445;1000;448
3.446;1000;449
3.447;1000;448
3.448;1000;448
3.449;1000;447
3.45;1000;447
3.451;1000;446
3.452;1000;445
3.453;1000;446
3.454;1000;447
3.455;1000;449
3.456;1000;449
3.457;1000;447
3.458;1000;446
3.459;1000;445
3.46;1000;445
3.461;1000;446
3.462;1000;447
3.463;1000;447
3.464;1000;445
3.465;1000;443
3.466;1000;443
3.467;1000;445
3.468;1000;447
3.469;1000;448
3.47;1000;451
3.471;1000;451
3.472;1000;450
3.473;1000;451
3.474;1000;452
3.475;1000;452
3.476;1000;454
3.477;1000;455
3.478;1000;456
3.479;1000;457
3.48;1000;457
3.481;1000;458
3.482;1000;458
3.483;1000;457
3.484;1000;455
3.485;1000;455
3.486;1000;454
3.487;1000;454
3.488;1000;453
3.489;1000;455
3.49;1000;457
3.491;1000;459
3.492;1000;462
3.493;1000;465
3.494;1000;467
3.495;1000;467
3.496;1000;465
3.497;1000;464
3.498;1000;464
3.499;1000;464
3.5;1000;465
3.501;1000;467
3.502;1000;467
3.503;1000;468
3.504;1000;468
3.505;1000;468
3.506;1000;467
3.507;1000;467
3.508;1000;467
3.509;1000;468
3.51;1000;470
3.511;1000;471
3.512;1000;471
3.513;1000;472
3.514;1000;472
3.515;1000;472
3.516;1000;473
3.517;1000;475
3.518;1000;476
3.519;1000;478
3.52;1000;479
3.521;1000;480
3.522;1000;481
3.523;1000;481
3.524;1000;479
3.525;1000;478
3.526;1000;477
3.527;1000;479
3.528;1000;481
3.529;1000;480
3.53;1000;479
3.531;1000;479
3.532;1000;478
3.533;1000;480
3.534;1000;482
3.535;1000;483
3.536;1000;484
3.537;1000;486
3.538;1000;490
3.539;1000;492
3.54;1000;492
3.541;1000;492
3.542;1000;489
3.543;1000;487
3.544;1000;485
3.545;1000;485
3.546;1000;485
3.547;1000;486
3.548;1000;487
3.549;1000;489
3.55;1000;490
3.551;1000;491
3.552;1000;491
3.553;1000;491
3.554;1000;490
3.555;1000;490
3.556;1000;491
3.557;1000;493
3.558;1000;494
3.559;1000;494
3.56;1000;494
3.561;1000;494
3.562;1000;494
3.563;1000;494
3.564;1000;492
3.565;1000;490
3.566;1000;491
3.567;1000;492
3.568;1000;492
3.569;1000;492
3.57;1000;494
3.571;1000;495
3.572;1000;496
3.573;1000;497
3.574;1000;498
3.575;1000;499
3.576;1000;499
3.577;1000;499
3.578;1000;498
3.579;1000;497
3.58;1000;498
3.581;1000;498
3.582;1000;496
3.583;1000;494
3.584;1000;489
3.585;1000;487
3.586;1000;489
3.587;1000;492
3.588;1000;494
3.589;1000;496
3.59;1000;496
3.591;1000;498
3.592;1000;497
3.593;1000;496
3.594;1000;495
3.595;1000;497
3.596;1000;499
3.597;1000;501
3.598;1000;501
3.599;1000;500
3.6;1000;499
3.601;1000;499
3.602;1000;499
3.603;1000;497
3.604;1000;496
3.605;1000;495
3.606;1000;495
3.607;1000;495
3.608;1000;493
3.609;1000;492
3.61;1000;495
3.611;1000;498
3.612;1000;500
3.613;1000;500
3.614;1000;502
3.615;1000;505
3.616;1000;507
3.617;1000;503
3.618;1000;501
3.619;1000;499
3.62;1000;498
3.621;1000;499
3.622;1000;498
3.623;1000;498
3.624;1000;498
3.625;1000;499
3.626;1000;498
3.627;1000;497
3.628;1000;499
3.629;1000;501
3.63;1000;500
3.631;1000;499
3.632;1000;499
3.633;1000;502
3.634;1000;504
3.635;1000;504
3.636;1000;504
3.637;1000;504
3.638;1000;504
3.639;1000;502
3.64;1000;500
3.641;1000;500
3.642;1000;499
3.643;1000;498
3.644;1000;498
3.645;1000;497
3.646;1000;496
3.647;1000;498
3.648;1000;499
3.649;1000;500
3.65;1000;500
3.651;1000;499
3.652;1000;498
3.653;1000;499
3.654;1000;503
3.655;1000;508
3.656;1000;510
3.657;1000;511
3.658;1000;510
3.659;1000;509
3.66;1000;508
3.661;1000;507
3.662;1000;505
3.663;1000;503
3.664;1000;502
3.665;1000;501
3.666;1000;500
3.667;1000;499
3.668;1000;501
3.669;1000;501
3.67;1000;502
3.671;1000;502
3.672;1000;501
3.673;1000;501
3.674;1000;502
3.675;1000;503
3.676;1000;504
3.677;1000;505
3.678;1000;506
3.679;1000;506
3.68;1000;506
3.681;1000;505
3.682;1000;503
3.683;1000;503
3.684;1000;502
3.685;1000;502
3.686;1000;500
3.687;1000;499
3.688;1000;499
3.689;1000;499
3.69;1000;499
3.691;1000;500
3.692;1000;501
3.693;1000;503
3.694;1000;504
3.695;1000;505
3.696;1000;504
3.697;1000;502
3.698;1000;502
3.699;1000;503
3.7;1000;505
3.701;1000;504
3.702;1000;504
3.703;1000;503
3.704;1000;501
3.705;1000;499
3.706;1000;500
3.707;1000;499
3.708;1000;500
3.709;1000;500
3.71;1000;502
3.711;1000;502
3.712;1000;504
3.713;1000;505
3.714;1000;508
3.715;1000;509
3.716;1000;509
3.717;1000;508
3.718;1000;509
3.719;1000;508
3.72;1000;508
3.721;1000;507
3.722;1000;506
3.723;1000;504
3.724;1000;503
3.725;1000;503
3.726;1000;502
3.727;1000;500
3.728;1000;498
3.729;1000;499
3.73;1000;502
3.731;1000;506
3.732;1000;508
3.733;1000;508
3.734;1000;510
3.735;1000;512
3.736;1000;513
3.737;1000;515
3.738;1000;516
3.739;1000;515
3.74;1000;516
3.741;1000;517
3.742;1000;516
3.743;1000;515
3.744;1000;514
3.745;1000;511
3.746;1000;510
3.747;1000;511
3.748;1000;512
3.749;1000;511
3.75;1000;510
3.751;1000;508
3.752;1000;506
3.753;1000;504
3.754;1000;504
3.755;1000;505
3.756;1000;507
3.757;1000;506
3.758;1000;504
3.759;1000;503
3.76;1000;500
3.761;1000;498
3.762;1000;496
3.763;1000;494
3.764;1000;493
3.765;1000;491
3.766;1000;491
3.767;1000;493
3.768;1000;493
3.769;1000;491
3.77;1000;491
3.771;1000;489
3.772;1000;489
3.773;1000;490
3.774;1000;492
3.775;1000;494
3.776;1000;495
3.777;1000;495
3.778;1000;495
3.779;1000;494
3.78;1000;496
3.781;1000;498
3.782;1000;499
3.783;1000;497
3.784;1000;497
3.785;1000;496
3.786;1000;495
3.787;1000;495
3.788;1000;495
3.789;1000;495
3.79;1000;493
3.791;1000;492
3.792;1000;493
3.793;1000;495
3.794;1000;497
3.795;1000;499
3.796;1000;498
3.797;1000;498
3.798;1000;499
3.799;1000;500
3.8;1000;502
3.801;1000;505
3.802;1000;506
3.803;1000;502
3.804;1000;498
3.805;1000;495
3.806;1000;494
3.807;1000;494
3.808;1000;496
3.809;1000;497
3.81;1000;496
3.811;1000;496
3.812;1000;498
3.813;1000;500
3.814;1000;500
3.815;1000;501
3.816;1000;502
3.817;1000;503
3.818;1000;503
3.819;1000;504
3.82;1000;504
3.821;1000;504
3.822;1000;504
3.823;1000;503
3.824;1000;503
3.825;1000;501
3.826;1000;500
3.827;1000;500
3.828;1000;501
3.829;1000;501
3.83;1000;502
3.831;1000;501
3.832;1000;500
3.833;1000;502
3.834;1000;502
3.835;1000;502
3.836;1000;502
3.837;1000;501
3.838;1000;503
3.839;1000;504
3.84;1000;502
3.841;1000;501
3.842;1000;500
3.843;1000;498
3.844;1000;495
3.845;1000;492
3.846;1000;488
3.847;1000;485
3.848;1000;480
3.849;1000;476
3.85;1000;474
3.851;1000;473
3.852;1000;475
3.853;1000;478
3.854;1000;481
3.855;1000;486
3.856;1000;495
3.857;1000;507
3.858;1000;518
3.859;1000;528
3.86;1000;536
3.861;1000;542
3.862;1000;547
3.863;1000;555
3.864;1000;563
3.865;1000;574
3.866;1000;585
3.867;1000;597
3.868;1000;610
3.869;1000;622
3.87;1000;635
3.871;1000;648
3.872;1000;656
3.873;1000;665
3.874;1000;673
3.875;1000;679
3.876;1000;685
3.877;1000;687
3.878;1000;688
3.879;1000;687
3.88;1000;686
3.881;1000;684
3.882;1000;679
3.883;1000;670
3.884;1000;654
3.885;1000;636
3.886;1000;611
3.887;1000;586
3.888;1000;558
3.889;1000;530
3.89;1000;510
3.891;1000;493
3.892;1000;479
3.893;1000;468
3.894;1000;458
3.895;1000;451
3.896;1000;449
3.897;1000;450
3.898;1000;454
3.899;1000;459
3.9;1000;463
3.901;1000;467
3.902;1000;471
3.903;1000;475
3.904;1000;477
3.905;1000;478
3.906;1000;478
3.907;1000;479
3.908;1000;477
3.909;1000;475
3.91;1000;476
3.911;1000;477
3.912;1000;477
3.913;1000;477
3.914;1000;477
3.915;1000;478
3.916;1000;477
3.917;1000;476
3.918;1000;475
3.919;1000;476
3.92;1000;476
3.921;1000;476
3.922;1000;478
3.923;1000;478
3.924;1000;478
3.925;1000;478
3.926;1000;479
3.927;1000;480
3.928;1000;481
3.929;1000;483
3.93;1000;484
3.931;1000;483
3.932;1000;484
3.933;1000;486
3.934;1000;487
3.935;1000;488
3.936;1000;488
3.937;1000;489
3.938;1000;489
3.939;1000;489
3.94;1000;490
3.941;1000;490
3.942;1000;489
3.943;1000;490
3.944;1000;491
3.945;1000;492
3.946;1000;493
3.947;1000;491
3.948;1000;490
3.949;1000;490
3.95;1000;489
3.951;1000;489
3.952;1000;492
3.953;1000;495
3.954;1000;496
3.955;1000;497
3.956;1000;497
3.957;1000;496
3.958;1000;496
3.959;1000;496
3.96;1000;496
3.961;1000;498
3.962;1000;499
3.963;1000;497
3.964;1000;495
3.965;1000;495
3.966;1000;496
3.967;1000;496
3.968;1000;496
3.969;1000;496
3.97;1000;498
3.971;1000;500
3.972;1000;502
3.973;1000;502
3.974;1000;502
3.975;1000;504
3.976;1000;506
3.977;1000;506
3.978;1000;505
3.979;1000;503
3.98;1000;502
3.981;1000;501
3.982;1000;499
3.983;1000;498
3.984;1000;497
3.985;1000;499
3.986;1000;503
3.987;1000;506
3.988;1000;509
3.989;1000;510
3.99;1000;509
3.991;1000;509
3.992;1000;510
3.993;1000;511
3.994;1000;512
3.995;1000;513
3.996;1000;515
3.997;1000;516
3.998;1000;516
3.999;1000;515
4;1000;513
4.001;1000;513
4.002;1000;512
4.003;1000;512
4.004;1000;513
4.005;1000;513
4.006;1000;512
4.007;1000;511
4.008;1000;511
4.009;1000;510
4.01;1000;511
4.011;1000;514
4.012;1000;518
4.013;1000;521
4.014;1000;523
4.015;1000;524
4.016;1000;525
4.017;1000;524
4.018;1000;523
4.019;1000;522
4.02;1000;521
4.021;1000;522
4.022;1000;523
4.023;1000;522
4.024;1000;521
4.025;1000;520
4.026;1000;519
4.027;1000;520
4.028;1000;521
4.029;1000;521
4.03;1000;522
4.031;1000;521
4.032;1000;521
4.033;1000;522
4.034;1000;525
4.035;1000;528
4.036;1000;529
4.037;1000;530
4.038;1000;531
4.039;1000;531
4.04;1000;531
4.041;1000;531
4.042;1000;530
4.043;1000;534
4.044;1000;536
4.045;1000;535
4.046;1000;533
4.047;1000;531
4.048;1000;530
4.049;1000;530
4.05;1000;533
4.051;1000;534
4.052;1000;534
4.053;1000;535
4.054;1000;537
4.055;1000;538
4.056;1000;537
4.057;1000;538
4.058;1000;538
4.059;1000;538
4.06;1000;539
4.061;1000;539
4.062;1000;540
4.063;1000;541
4.064;1000;540
4.065;1000;539
4.066;1000;541
4.067;1000;541
4.068;1000;542
4.069;1000;543
4.07;1000;542
4.071;1000;542
4.072;1000;544
4.073;1000;547
4.074;1000;549
4.075;1000;551
4.076;1000;552
4.077;1000;553
4.078;1000;551
4.079;1000;547
4.08;1000;545
4.081;1000;545
4.082;1000;549
4.083;1000;553
4.084;1000;555
4.085;1000;553
4.086;1000;553
4.087;1000;555
4.088;1000;556
4.089;1000;558
4.09;1000;559
4.091;1000;558
4.092;1000;558
4.093;1000;558
4.094;1000;558
4.095;1000;560
4.096;1000;561
4.097;1000;564
4.098;1000;566
4.099;1000;566
4.1;1000;566
4.101;1000;567
4.102;1000;568
4.103;1000;568
4.104;1000;566
4.105;1000;564
4.106;1000;562
4.107;1000;560
4.108;1000;560
4.109;1000;561
4.11;1000;562
4.111;1000;565
4.112;1000;568
4.113;1000;567
4.114;1000;565
4.115;1000;567
4.116;1000;568
4.117;1000;568
4.118;1000;568
4.119;1000;567
4.12;1000;565
4.121;1000;564
4.122;1000;564
4.123;1000;564
4.124;1000;561
4.125;1000;559
4.126;1000;557
4.127;1000;555
4.128;1000;555
4.129;1000;555
4.13;1000;555
4.131;1000;554
4.132;1000;554
4.133;1000;555
4.134;1000;555
4.135;1000;552
4.136;1000;551
4.137;1000;549
4.138;1000;547
4.139;1000;545
4.14;1000;542
4.141;1000;539
4.142;1000;536
4.143;1000;531
4.144;1000;527
4.145;1000;524
4.146;1000;524
4.147;1000;524
4.148;1000;525
4.149;1000;523
4.15;1000;521
4.151;1000;519
4.152;1000;517
4.153;1000;515
4.154;1000;513
4.155;1000;510
4.156;1000;507
4.157;1000;507
4.158;1000;504
4.159;1000;500
4.16;1000;497
4.161;1000;493
4.162;1000;487
4.163;1000;484
4.164;1000;481
4.165;1000;477
4.166;1000;474
4.167;1000;472
4.168;1000;471
4.169;1000;468
4.17;1000;467
4.171;1000;466
4.172;1000;465
4.173;1000;464
4.174;1000;465
4.175;1000;464
4.176;1000;463
4.177;1000;461
4.178;1000;458
4.179;1000;456
4.18;1000;454
4.181;1000;453
4.182;1000;453
4.183;1000;452
4.184;1000;452
4.185;1000;450
4.186;1000;450
4.187;1000;448
4.188;1000;448
4.189;1000;447
4.19;1000;446
4.191;1000;446
4.192;1000;446
4.193;1000;447
4.194;1000;449
4.195;1000;451
4.196;1000;452
4.197;1000;453
4.198;1000;455
4.199;1000;458
4.2;1000;458
4.201;1000;460
4.202;1000;460
4.203;1000;457
4.204;1000;454
4.205;1000;451
4.206;1000;449
4.207;1000;449
4.208;1000;452
4.209;1000;455
4.21;1000;455
4.211;1000;456
4.212;1000;457
4.213;1000;458
4.214;1000;460
4.215;1000;460
4.216;1000;460
4.217;1000;460
4.218;1000;460
4.219;1000;460
4.22;1000;461
4.221;1000;462
4.222;1000;462
4.223;1000;460
4.224;1000;459
4.225;1000;459
4.226;1000;461
4.227;1000;463
4.228;1000;466
4.229;1000;466
4.23;1000;467
4.231;1000;467
4.232;1000;467
4.233;1000;469
4.234;1000;469
4.235;1000;469
4.236;1000;470
4.237;1000;470
4.238;1000;470
4.239;1000;471
4.24;1000;472
4.241;1000;473
4.242;1000;474
4.243;1000;476
4.244;1000;476
4.245;1000;477
4.246;1000;478
4.247;1000;476
4.248;1000;475
4.249;1000;473
4.25;1000;474
4.251;1000;474
4.252;1000;476
4.253;1000;480
4.254;1000;481
4.255;1000;481
4.256;1000;484
4.257;1000;486
4.258;1000;486
4.259;1000;484
4.26;1000;483
4.261;1000;483
4.262;1000;483
4.263;1000;484
4.264;1000;483
4.265;1000;482
4.266;1000;482
4.267;1000;482
4.268;1000;483
4.269;1000;484
4.27;1000;486
4.271;1000;486
4.272;1000;486
4.273;1000;487
4.274;1000;487
4.275;1000;490
4.276;1000;493
4.277;1000;495
4.278;1000;494
4.279;1000;492
4.28;1000;491
4.281;1000;492
4.282;1000;493
4.283;1000;492
4.284;1000;491
4.285;1000;488
4.286;1000;486
4.287;1000;483
4.288;1000;485
4.289;1000;488
4.29;1000;489
4.291;1000;491
4.292;1000;492
4.293;1000;495
4.294;1000;497
4.295;1000;498
4.296;1000;497
4.297;1000;497
4.298;1000;497
4.299;1000;498
4.3;1000;499
4.301;1000;498
4.302;1000;499
4.303;1000;498
4.304;1000;495
4.305;1000;493
4.306;1000;491
4.307;1000;491
4.308;1000;492
4.309;1000;493
4.31;1000;495
4.311;1000;496
4.312;1000;496
4.313;1000;496
4.314;1000;497
4.315;1000;498
4.316;1000;500
4.317;1000;503
4.318;1000;504
4.319;1000;503
4.32;1000;501
4.321;1000;499
4.322;1000;496
4.323;1000;493
4.324;1000;492
4.325;1000;491
4.326;1000;491
4.327;1000;492
4.328;1000;492
4.329;1000;492
4.33;1000;492
4.331;1000;491
4.332;1000;491
4.333;1000;494
4.334;1000;497
4.335;1000;500
4.336;1000;500
4.337;1000;499
4.338;1000;498
4.339;1000;496
4.34;1000;495
4.341;1000;495
4.342;1000;496
4.343;1000;496
4.344;1000;495
4.345;1000;493
4.346;1000;492
4.347;1000;492
4.348;1000;492
4.349;1000;494
4.35;1000;496
4.351;1000;495
4.352;1000;493
4.353;1000;495
4.354;1000;497
4.355;1000;499
4.356;1000;499
4.357;1000;500
4.358;1000;499
4.359;1000;499
4.36;1000;498
4.361;1000;498
4.362;1000;498
4.363;1000;498
4.364;1000;496
4.365;1000;493
4.366;1000;491
4.367;1000;491
4.368;1000;491
4.369;1000;490
4.37;1000;492
4.371;1000;495
4.372;1000;496
4.373;1000;496
4.374;1000;497
4.375;1000;497
4.376;1000;496
4.377;1000;499
4.378;1000;500
4.379;1000;499
4.38;1000;499
4.381;1000;498
4.382;1000;498
4.383;1000;497
4.384;1000;496
4.385;1000;495
4.386;1000;494
4.387;1000;494
4.388;1000;493
4.389;1000;493
4.39;1000;494
4.391;1000;492
4.392;1000;492
4.393;1000;494
4.394;1000;497
4.395;1000;498
4.396;1000;500
4.397;1000;500
4.398;1000;500
4.399;1000;501
4.4;1000;503
4.401;1000;504
4.402;1000;502
4.403;1000;500
4.404;1000;497
4.405;1000;496
4.406;1000;496
4.407;1000;497
4.408;1000;497
4.409;1000;501
4.41;1000;503
4.411;1000;503
4.412;1000;501
4.413;1000;498
4.414;1000;497
4.415;1000;497
4.416;1000;499
4.417;1000;503
4.418;1000;506
4.419;1000;506
4.42;1000;504
4.421;1000;502
4.422;1000;502
4.423;1000;500
4.424;1000;498
4.425;1000;496
4.426;1000;496
4.427;1000;497
4.428;1000;498
4.429;1000;499
4.43;1000;500
4.431;1000;499
4.432;1000;499
4.433;1000;499
4.434;1000;503
4.435;1000;504
4.436;1000;504
4.437;1000;502
4.438;1000;499
4.439;1000;497
4.44;1000;498
4.441;1000;500
4.442;1000;502
4.443;1000;504
4.444;1000;504
4.445;1000;504
4.446;1000;506
4.447;1000;508
4.448;1000;508
4.449;1000;510
4.45;1000;511
4.451;1000;510
4.452;1000;509
4.453;1000;510
4.454;1000;511
4.455;1000;511
4.456;1000;512
4.457;1000;512
4.458;1000;510
4.459;1000;508
4.46;1000;507
4.461;1000;506
4.462;1000;504
4.463;1000;503
4.464;1000;502
4.465;1000;502
4.466;1000;503
4.467;1000;504
4.468;1000;505
4.469;1000;505
4.47;1000;505
4.471;1000;506
4.472;1000;506
4.473;1000;508
4.474;1000;510
4.475;1000;511
4.476;1000;513
4.477;1000;514
4.478;1000;515
4.479;1000;517
4.48;1000;518
4.481;1000;518
4.482;1000;518
4.483;1000;519
4.484;1000;518
4.485;1000;517
4.486;1000;515
4.487;1000;515
4.488;1000;515
4.489;1000;515
4.49;1000;515
4.491;1000;515
4.492;1000;516
4.493;1000;518
4.494;1000;518
4.495;1000;517
4.496;1000;516
4.497;1000;513
4.498;1000;512
4.499;1000;509
4.5;1000;508
4.501;1000;506
4.502;1000;504
4.503;1000;503
4.504;1000;504
4.505;1000;504
4.506;1000;503
4.507;1000;502
4.508;1000;500
4.509;1000;500
4.51;1000;500
4.511;1000;499
4.512;1000;498
4.513;1000;499
4.514;1000;499
4.515;1000;501
4.516;1000;502
4.517;1000;503
4.518;1000;504
4.519;1000;504
4.52;1000;505
4.521;1000;505
4.522;1000;503
4.523;1000;502
4.524;1000;499
4.525;1000;497
4.526;1000;496
4.527;1000;496
4.528;1000;496
4.529;1000;499
4.53;1000;499
4.531;1000;500
4.532;1000;502
4.533;1000;503
4.534;1000;503
4.535;1000;502
4.536;1000;502
4.537;1000;504
4.538;1000;507
4.539;1000;506
4.54;1000;506
4.541;1000;505
4.542;1000;504
4.543;1000;502
4.544;1000;498
4.545;1000;497
4.546;1000;499
4.547;1000;500
4.548;1000;503
4.549;1000;507
4.55;1000;508
4.551;1000;508
4.552;1000;506
4.553;1000;506
4.554;1000;505
4.555;1000;506
4.556;1000;505
4.557;1000;504
4.558;1000;504
4.559;1000;504
4.56;1000;504
4.561;1000;506
4.562;1000;508
4.563;1000;510
4.564;1000;509
4.565;1000;508
4.566;1000;506
4.567;1000;505
4.568;1000;505
4.569;1000;507
4.57;1000;507
4.571;1000;506
4.572;1000;506
4.573;1000;508
4.574;1000;508
4.575;1000;508
4.576;1000;508
4.577;1000;508
4.578;1000;508
4.579;1000;509
4.58;1000;509
4.581;1000;507
4.582;1000;504
4.583;1000;499
4.584;1000;493
4.585;1000;490
4.586;1000;491
4.587;1000;491
4.588;1000;488
4.589;1000;483
4.59;1000;480
4.591;1000;480
4.592;1000;480
4.593;1000;482
4.594;1000;485
4.595;1000;489
4.596;1000;492
4.597;1000;496
4.598;1000;504
4.599;1000;512
4.6;1000;522
4.601;1000;532
4.602;1000;543
4.603;1000;551
4.604;1000;559
4.605;1000;568
4.606;1000;579
4.607;1000;592
4.608;1000;604
4.609;1000;619
4.61;1000;632
4.611;1000;641
4.612;1000;651
4.613;1000;660
4.614;1000;670
4.615;1000;678
4.616;1000;684
4.617;1000;690
4.618;1000;695
4.619;1000;700
4.62;1000;702
4.621;1000;701
4.622;1000;697
4.623;1000;693
4.624;1000;686
4.625;1000;676
4.626;1000;660
4.627;1000;640
4.628;1000;620
4.629;1000;596
4.63;1000;568
4.631;1000;539
4.632;1000;518
4.633;1000;505
4.634;1000;495
4.635;1000;485
4.636;1000;478
4.637;1000;472
4.638;1000;467
4.639;1000;464
4.64;1000;462
4.641;1000;462
4.642;1000;467
4.643;1000;471
4.644;1000;475
4.645;1000;476
4.646;1000;476
4.647;1000;477
4.648;1000;475
4.649;1000;472
4.65;1000;472
4.651;1000;473
4.652;1000;476
4.653;1000;477
4.654;1000;478
4.655;1000;476
4.656;1000;475
4.657;1000;472
4.658;1000;469
4.659;1000;467
4.66;1000;467
4.661;1000;467
4.662;1000;468
4.663;1000;471
4.664;1000;473
4.665;1000;475
4.666;1000;475
4.667;1000;476
4.668;1000;478
4.669;1000;479
4.67;1000;480
4.671;1000;480
4.672;1000;481
4.673;1000;483
4.674;1000;485
4.675;1000;487
4.676;1000;488
4.677;1000;491
4.678;1000;493
4.679;1000;493
4.68;1000;491
4.681;1000;490
4.682;1000;490
4.683;1000;491
4.684;1000;491
4.685;1000;491
4.686;1000;491
4.687;1000;492
4.688;1000;492
4.689;1000;492
4.69;1000;492
4.691;1000;491
4.692;1000;490
4.693;1000;491
4.694;1000;494
4.695;1000;496
4.696;1000;499
4.697;1000;500
4.698;1000;500
4.699;1000;499
4.7;1000;498
4.701;1000;498
4.702;1000;498
4.703;1000;499
4.704;1000;499
4.705;1000;499
4.706;1000;499
4.707;1000;498
4.708;1000;497
4.709;1000;499
4.71;1000;501
4.711;1000;503
4.712;1000;503
4.713;1000;505
4.714;1000;508
4.715;1000;509
4.716;1000;508
4.717;1000;508
4.718;1000;509
4.719;1000;509
4.72;1000;508
4.721;1000;508
4.722;1000;507
4.723;1000;508
4.724;1000;507
4.725;1000;508
4.726;1000;508
4.727;1000;508
4.728;1000;510
4.729;1000;511
4.73;1000;511
4.731;1000;510
4.732;1000;511
4.733;1000;512
4.734;1000;514
4.735;1000;515
4.736;1000;515
4.737;1000;515
4.738;1000;514
4.739;1000;513
4.74;1000;515
4.741;1000;517
4.742;1000;517
4.743;1000;515
4.744;1000;512
4.745;1000;511
4.746;1000;512
4.747;1000;513
4.748;1000;515
4.749;1000;517
4.75;1000;519
4.751;1000;518
4.752;1000;518
4.753;1000;518
4.754;1000;520
4.755;1000;521
4.756;1000;522
4.757;1000;523
4.758;1000;522
4.759;1000;522
4.76;1000;522
4.761;1000;522
4.762;1000;522
4.763;1000;520
4.764;1000;519
4.765;1000;519
4.766;1000;514
4.767;1000;511
4.768;1000;515
4.769;1000;519
4.77;1000;522
4.771;1000;523
4.772;1000;523
4.773;1000;524
4.774;1000;526
4.775;1000;528
4.776;1000;530
4.777;1000;531
4.778;1000;531
4.779;1000;531
4.78;1000;531
4.781;1000;532
4.782;1000;531
4.783;1000;531
4.784;1000;529
4.785;1000;527
4.786;1000;526
4.787;1000;527
4.788;1000;527
4.789;1000;529
4.79;1000;531
4.791;1000;531
4.792;1000;531
4.793;1000;532
4.794;1000;533
4.795;1000;534
4.796;1000;534
4.797;1000;534
4.798;1000;534
4.799;1000;533
4.8;1000;533
4.801;1000;534
4.802;1000;535
4.803;1000;536
4.804;1000;536
4.805;1000;536
4.806;1000;536
4.807;1000;536
4.808;1000;537
4.809;1000;538
4.81;1000;538
4.811;1000;536
4.812;1000;537
4.813;1000;540
4.814;1000;542
4.815;1000;543
4.816;1000;543
4.817;1000;544
4.818;1000;544
4.819;1000;545
4.82;1000;545
4.821;1000;545
4.822;1000;544
4.823;1000;544
4.824;1000;543
4.825;1000;543
4.826;1000;544
4.827;1000;544
4.828;1000;545
4.829;1000;545
4.83;1000;546
4.831;1000;546
4.832;1000;546
4.833;1000;550
4.834;1000;551
4.835;1000;553
4.836;1000;554
4.837;1000;556
4.838;1000;556
4.839;1000;555
4.84;1000;556
4.841;1000;558
4.842;1000;560
4.843;1000;560
4.844;1000;559
4.845;1000;558
4.846;1000;558
4.847;1000;557
4.848;1000;556
4.849;1000;556
4.85;1000;557
4.851;1000;560
4.852;1000;561
4.853;1000;562
4.854;1000;561
4.855;1000;560
4.856;1000;558
4.857;1000;557
4.858;1000;556
4.859;1000;556
4.86;1000;557
4.861;1000;559
4.862;1000;559
4.863;1000;557
4.864;1000;555
4.865;1000;552
4.866;1000;551
4.867;1000;550
4.868;1000;550
4.869;1000;550
4.87;1000;549
4.871;1000;548
4.872;1000;547
4.873;1000;547
4.874;1000;547
4.875;1000;546
4.876;1000;545
4.877;1000;544
4.878;1000;542
4.879;1000;539
4.88;1000;537
4.881;1000;533
4.882;1000;533
4.883;1000;531
4.884;1000;529
4.885;1000;526
4.886;1000;523
4.887;1000;519
4.888;1000;517
4.889;1000;516
4.89;1000;515
4.891;1000;514
4.892;1000;512
4.893;1000;512
4.894;1000;512
4.895;1000;511
4.896;1000;509
4.897;1000;506
4.898;1000;505
4.899;1000;504
4.9;1000;501
4.901;1000;497
4.902;1000;494
4.903;1000;489
4.904;1000;485
4.905;1000;481
4.906;1000;478
4.907;1000;475
4.908;1000;473
4.909;1000;471
4.91;1000;470
4.911;1000;468
4.912;1000;468
4.913;1000;471
4.914;1000;472
4.915;1000;471
4.916;1000;470
4.917;1000;467
4.918;1000;466
4.919;1000;465
4.92;1000;463
4.921;1000;462
4.922;1000;461
4.923;1000;460
4.924;1000;459
4.925;1000;456
4.926;1000;455
4.927;1000;455
4.928;1000;457
4.929;1000;457
4.93;1000;458
4.931;1000;457
4.932;1000;458
4.933;1000;460
4.934;1000;460
4.935;1000;459
4.936;1000;458
4.937;1000;459
4.938;1000;458
4.939;1000;457
4.94;1000;457
4.941;1000;459
4.942;1000;459
4.943;1000;457
4.944;1000;455
4.945;1000;454
4.946;1000;454
4.947;1000;454
4.948;1000;456
4.949;1000;456
4.95;1000;456
4.951;1000;456
4.952;1000;458
4.953;1000;459
4.954;1000;460
4.955;1000;462
4.956;1000;463
4.957;1000;463
4.958;1000;463
4.959;1000;463
4.96;1000;464
4.961;1000;463
4.962;1000;463
4.963;1000;463
4.964;1000;463
4.965;1000;463
4.966;1000;464
4.967;1000;467
4.968;1000;469
4.969;1000;470
4.97;1000;470
4.971;1000;470
4.972;1000;472
4.973;1000;474
4.974;1000;476
4.975;1000;477
4.976;1000;478
4.977;1000;477
4.978;1000;476
4.979;1000;476
4.98;1000;475
4.981;1000;474
4.982;1000;474
4.983;1000;474
4.984;1000;473
4.985;1000;473
4.986;1000;474
4.987;1000;474
4.988;1000;474
4.989;1000;474
4.99;1000;476
4.991;1000;476
4.992;1000;478
4.993;1000;478
4.994;1000;480
4.995;1000;483
4.996;1000;484
4.997;1000;484
4.998;1000;484
4.999;1000;484
5;1000;484
5.001;1000;483
5.002;1000;481
5.003;1000;479
5.004;1000;480
5.005;1000;480
5.006;1000;480
5.007;1000;480
5.008;1000;481
5.009;1000;483
5.01;1000;485
5.011;1000;486
5.012;1000;487
5.013;1000;489
5.014;1000;491
5.015;1000;491
5.016;1000;491
5.017;1000;490
5.018;1000;491
5.019;1000;492
5.02;1000;491
5.021;1000;490
5.022;1000;489
5.023;1000;489
5.024;1000;488
5.025;1000;488
5.026;1000;489
5.027;1000;491
5.028;1000;492
5.029;1000;493
5.03;1000;492
5.031;1000;492
5.032;1000;492
5.033;1000;492
5.034;1000;493
5.035;1000;494
5.036;1000;496
5.037;1000;497
5.038;1000;496
5.039;1000;495
5.04;1000;494
5.041;1000;494
5.042;1000;495
5.043;1000;494
5.044;1000;493
5.045;1000;492
5.046;1000;491
5.047;1000;492
5.048;1000;494
5.049;1000;495
5.05;1000;494
5.051;1000;494
5.052;1000;494
5.053;1000;494
5.054;1000;495
5.055;1000;497
5.056;1000;499
5.057;1000;502
5.058;1000;503
5.059;1000;501
5.06;1000;500
5.061;1000;499
5.062;1000;499
5.063;1000;498
5.064;1000;496
5.065;1000;495
5.066;1000;494
5.067;1000;493
5.068;1000;492
5.069;1000;494
5.07;1000;495
5.071;1000;495
5.072;1000;497
5.073;1000;502
5.074;1000;506
5.075;1000;509
5.076;1000;508
5.077;1000;507
5.078;1000;505
5.079;1000;505
5.08;1000;506
5.081;1000;508
5.082;1000;508
5.083;1000;508
5.084;1000;506
5.085;1000;504
5.086;1000;502
5.087;1000;500
5.088;1000;499
5.089;1000;499
5.09;1000;500
5.091;1000;502
5.092;1000;503
5.093;1000;501
5.094;1000;503
5.095;1000;504
5.096;1000;503
5.097;1000;504
5.098;1000;505
5.099;1000;506
5.1;1000;507
5.101;1000;507
5.102;1000;508
5.103;1000;507
5.104;1000;505
5.105;1000;504
5.106;1000;503
5.107;1000;501
5.108;1000;501
5.109;1000;502
5.11;1000;503
5.111;1000;502
5.112;1000;502
5.113;1000;504
5.114;1000;505
5.115;1000;508
5.116;1000;510
5.117;1000;511
5.118;1000;512
5.119;1000;510
5.12;1000;507
5.121;1000;505
5.122;1000;504
5.123;1000;502
5.124;1000;500
5.125;1000;499
5.126;1000;498
5.127;1000;497
5.128;1000;498
5.129;1000;499
5.13;1000;501
5.131;1000;504
5.132;1000;505
5.133;1000;505
5.134;1000;507
5.135;1000;509
5.136;1000;510
5.137;1000;510
5.138;1000;509
5.139;1000;507
5.14;1000;506
5.141;1000;506
5.142;1000;506
5.143;1000;505
5.144;1000;505
5.145;1000;505
5.146;1000;505
5.147;1000;506
5.148;1000;505
5.149;1000;502
5.15;1000;501
5.151;1000;501
5.152;1000;501
5.153;1000;504
5.154;1000;506
5.155;1000;508
5.156;1000;510
5.157;1000;511
5.158;1000;512
5.159;1000;512
5.16;1000;511
5.161;1000;509
5.162;1000;509
5.163;1000;508
5.164;1000;508
5.165;1000;507
5.166;1000;505
5.167;1000;503
5.168;1000;503
5.169;1000;505
5.17;1000;506
5.171;1000;507
5.172;1000;507
5.173;1000;509
5.174;1000;511
5.175;1000;512
5.176;1000;511
5.177;1000;510
5.178;1000;508
5.179;1000;505
5.18;1000;503
5.181;1000;501
5.182;1000;501
5.183;1000;503
5.184;1000;505
5.185;1000;508
5.186;1000;508
5.187;1000;506
5.188;1000;505
5.189;1000;504
5.19;1000;506
5.191;1000;508
5.192;1000;511
5.193;1000;512
5.194;1000;513
5.195;1000;513
5.196;1000;514
5.197;1000;513
5.198;1000;512
5.199;1000;512
5.2;1000;512
5.201;1000;512
5.202;1000;513
5.203;1000;511
5.204;1000;508
5.205;1000;504
5.206;1000;503
5.207;1000;501
5.208;1000;502
5.209;1000;504
5.21;1000;505
5.211;1000;506
5.212;1000;507
5.213;1000;508
5.214;1000;508
5.215;1000;508
5.216;1000;510
5.217;1000;511
5.218;1000;511
5.219;1000;511
5.22;1000;511
5.221;1000;511
5.222;1000;510
5.223;1000;507
5.224;1000;504
5.225;1000;502
5.226;1000;502
5.227;1000;502
5.228;1000;503
5.229;1000;504
5.23;1000;504
5.231;1000;503
5.232;1000;503
5.233;1000;505
5.234;1000;508
5.235;1000;510
5.236;1000;511
5.237;1000;512
5.238;1000;512
5.239;1000;511
5.24;1000;510
5.241;1000;509
5.242;1000;508
5.243;1000;508
5.244;1000;508
5.245;1000;507
5.246;1000;507
5.247;1000;507
5.248;1000;510
5.249;1000;511
5.25;1000;510
5.251;1000;512
5.252;1000;513
5.253;1000;514
5.254;1000;515
5.255;1000;516
5.256;1000;515
5.257;1000;512
5.258;1000;511
5.259;1000;509
5.26;1000;508
5.261;1000;511
5.262;1000;513
5.263;1000;515
5.264;1000;515
5.265;1000;515
5.266;1000;515
5.267;1000;514
5.268;1000;515
5.269;1000;517
5.27;1000;518
5.271;1000;519
5.272;1000;519
5.273;1000;519
5.274;1000;521
5.275;1000;521
5.276;1000;522
5.277;1000;522
5.278;1000;520
5.279;1000;519
5.28;1000;520
5.281;1000;521
5.282;1000;520
5.283;1000;519
5.284;1000;516
5.285;1000;514
5.286;1000;513
5.287;1000;513
5.288;1000;516
5.289;1000;518
5.29;1000;519
5.291;1000;518
5.292;1000;516
5.293;1000;515
5.294;1000;517
5.295;1000;519
5.296;1000;520
5.297;1000;520
5.298;1000;519
5.299;1000;518
5.3;1000;516
5.301;1000;514
5.302;1000;513
5.303;1000;512
5.304;1000;511
5.305;1000;511
5.306;1000;510
5.307;1000;506
5.308;1000;504
5.309;1000;503
5.31;1000;502
5.311;1000;500
5.312;1000;499
5.313;1000;499
5.314;1000;501
5.315;1000;503
5.316;1000;504
5.317;1000;505
5.318;1000;508
5.319;1000;508
5.32;1000;508
5.321;1000;511
5.322;1000;511
5.323;1000;511
5.324;1000;510
5.325;1000;510
5.326;1000;510
5.327;1000;509
5.328;1000;510
5.329;1000;511
5.33;1000;511
5.331;1000;510
5.332;1000;509
5.333;1000;508
5.334;1000;508
5.335;1000;509
5.336;1000;510
5.337;1000;511
5.338;1000;512
5.339;1000;513
5.34;1000;516
5.341;1000;519
5.342;1000;517
5.343;1000;515
5.344;1000;513
5.345;1000;512
5.346;1000;511
5.347;1000;510
5.348;1000;508
5.349;1000;508
5.35;1000;508
5.351;1000;508
5.352;1000;508
5.353;1000;508
5.354;1000;511
5.355;1000;513
5.356;1000;515
5.357;1000;516
5.358;1000;516
5.359;1000;515
5.36;1000;515
5.361;1000;515
5.362;1000;514
5.363;1000;513
5.364;1000;512
5.365;1000;511
5.366;1000;510
5.367;1000;509
5.368;1000;509
5.369;1000;510
5.37;1000;510
5.371;1000;508
5.372;1000;508
5.373;1000;510
5.374;1000;514
5.375;1000;515
5.376;1000;516
5.377;1000;516
5.378;1000;513
5.379;1000;512
5.38;1000;510
5.381;1000;508
5.382;1000;505
5.383;1000;499
5.384;1000;494
5.385;1000;491
5.386;1000;489
5.387;1000;487
5.388;1000;485
5.389;1000;483
5.39;1000;483
5.391;1000;486
5.392;1000;488
5.393;1000;492
5.394;1000;498
5.395;1000;504
5.396;1000;509
5.397;1000;515
5.398;1000;524
5.399;1000;535
5.4;1000;546
5.401;1000;556
5.402;1000;567
5.403;1000;577
5.404;1000;588
5.405;1000;600
5.406;1000;615
5.407;1000;628
5.408;1000;640
5.409;1000;653
5.41;1000;664
5.411;1000;675
5.412;1000;683
5.413;1000;688
5.414;1000;693
5.415;1000;700
5.416;1000;708
5.417;1000;717
5.418;1000;727
5.419;1000;731
5.42;1000;730
5.421;1000;729
5.422;1000;723
5.423;1000;717
5.424;1000;703
5.425;1000;684
5.426;1000;664
5.427;1000;641
5.428;1000;617
5.429;1000;591
5.43;1000;568
5.431;1000;549
5.432;1000;534
5.433;1000;521
5.434;1000;511
5.435;1000;503
5.436;1000;496
5.437;1000;490
5.438;1000;483
5.439;1000;478
5.44;1000;474
5.441;1000;471
5.442;1000;469
5.443;1000;468
5.444;1000;468
5.445;1000;467
5.446;1000;466
5.447;1000;464
5.448;1000;463
5.449;1000;461
5.45;1000;462
5.451;1000;461
5.452;1000;460
5.453;1000;461
5.454;1000;461
5.455;1000;461
5.456;1000;464
5.457;1000;466
5.458;1000;467
5.459;1000;468
5.46;1000;468
5.461;1000;469
5.462;1000;470
5.463;1000;470
5.464;1000;468
5.465;1000;467
5.466;1000;469
5.467;1000;469
5.468;1000;470
5.469;1000;470
5.47;1000;469
5.471;1000;467
5.472;1000;467
5.473;1000;469
5.474;1000;472
5.475;1000;475
5.476;1000;477
5.477;1000;478
5.478;1000;478
5.479;1000;478
5.48;1000;478
5.481;1000;480
5.482;1000;480
5.483;1000;480
5.484;1000;476
5.485;1000;475
5.486;1000;475
5.487;1000;476
5.488;1000;478
5.489;1000;480
5.49;1000;481
5.491;1000;482
5.492;1000;483
5.493;1000;483
5.494;1000;484
5.495;1000;486
5.496;1000;486
5.497;1000;487
5.498;1000;487
5.499;1000;487
5.5;1000;488
5.501;1000;488
5.502;1000;487
5.503;1000;488
5.504;1000;489
5.505;1000;489
5.506;1000;488
5.507;1000;487
5.508;1000;487
5.509;1000;487
5.51;1000;487
5.511;1000;488
5.512;1000;490
5.513;1000;492
5.514;1000;495
5.515;1000;497
5.516;1000;498
5.517;1000;498
5.518;1000;498
5.519;1000;498
5.52;1000;499
5.521;1000;499
5.522;1000;498
5.523;1000;497
5.524;1000;494
5.525;1000;492
5.526;1000;493
5.527;1000;493
5.528;1000;495
5.529;1000;497
5.53;1000;499
5.531;1000;499
5.532;1000;498
5.533;1000;499
5.534;1000;500
5.535;1000;501
5.536;1000;502
5.537;1000;503
5.538;1000;503
5.539;1000;504
5.54;1000;506
5.541;1000;510
5.542;1000;511
5.543;1000;510
5.544;1000;507
5.545;1000;504
5.546;1000;502
5.547;1000;502
5.548;1000;502
5.549;1000;502
5.55;1000;503
5.551;1000;508
5.552;1000;510
5.553;1000;512
5.554;1000;511
5.555;1000;508
5.556;1000;508
5.557;1000;508
5.558;1000;507
5.559;1000;506
5.56;1000;506
5.561;1000;507
5.562;1000;509
5.563;1000;511
5.564;1000;511
5.565;1000;512
5.566;1000;513
5.567;1000;512
5.568;1000;512
5.569;1000;513
5.57;1000;513
5.571;1000;514
5.572;1000;515
5.573;1000;516
5.574;1000;516
5.575;1000;517
5.576;1000;517
5.577;1000;518
5.578;1000;518
5.579;1000;517
5.58;1000;516
5.581;1000;516
5.582;1000;516
5.583;1000;516
5.584;1000;516
5.585;1000;516
5.586;1000;517
5.587;1000;519
5.588;1000;521
5.589;1000;521
5.59;1000;522
5.591;1000;522
5.592;1000;523
5.593;1000;524
5.594;1000;524
5.595;1000;525
5.596;1000;527
5.597;1000;528
5.598;1000;529
5.599;1000;528
5.6;1000;526
5.601;1000;524
5.602;1000;521
5.603;1000;521
5.604;1000;522
5.605;1000;525
5.606;1000;527
5.607;1000;529
5.608;1000;533
5.609;1000;536
5.61;1000;538
5.611;1000;539
5.612;1000;540
5.613;1000;541
5.614;1000;542
5.615;1000;542
5.616;1000;543
5.617;1000;543
5.618;1000;542
5.619;1000;541
5.62;1000;542
5.621;1000;542
5.622;1000;542
5.623;1000;543
5.624;1000;541
5.625;1000;540
5.626;1000;541
5.627;1000;542
5.628;1000;545
5.629;1000;547
5.63;1000;548
5.631;1000;549
5.632;1000;550
5.633;1000;551
5.634;1000;553
5.635;1000;556
5.636;1000;558
5.637;1000;558
5.638;1000;556
5.639;1000;554
5.64;1000;552
5.641;1000;551
5.642;1000;551
5.643;1000;550
5.644;1000;549
5.645;1000;549
5.646;1000;550
5.647;1000;551
5.648;1000;552
5.649;1000;553
5.65;1000;555
5.651;1000;555
5.652;1000;556
5.653;1000;556
5.654;1000;556
5.655;1000;557
5.656;1000;558
5.657;1000;558
5.658;1000;558
5.659;1000;556
5.66;1000;555
5.661;1000;555
5.662;1000;554
5.663;1000;555
5.664;1000;554
5.665;1000;553
5.666;1000;552
5.667;1000;550
5.668;1000;549
5.669;1000;552
5.67;1000;553
5.671;1000;553
5.672;1000;553
5.673;1000;552
5.674;1000;551
5.675;1000;551
5.676;1000;550
5.677;1000;548
5.678;1000;546
5.679;1000;544
5.68;1000;542
5.681;1000;541
5.682;1000;539
5.683;1000;537
5.684;1000;534
5.685;1000;530
5.686;1000;527
5.687;1000;524
5.688;1000;520
5.689;1000;517
5.69;1000;517
5.691;1000;518
5.692;1000;517
5.693;1000;516
5.694;1000;514
5.695;1000;511
5.696;1000;508
5.697;1000;505
5.698;1000;502
5.699;1000;498
5.7;1000;495
5.701;1000;493
5.702;1000;491
5.703;1000;487
5.704;1000;484
5.705;1000;482
5.706;1000;479
5.707;1000;476
5.708;1000;473
5.709;1000;471
5.71;1000;468
5.711;1000;468
5.712;1000;467
5.713;1000;467
5.714;1000;468
5.715;1000;469
5.716;1000;469
5.717;1000;468
5.718;1000;466
5.719;1000;463
5.72;1000;460
5.721;1000;460
5.722;1000;461
5.723;1000;461
5.724;1000;461
5.725;1000;459
5.726;1000;455
5.727;1000;455
5.728;1000;455
5.729;1000;455
5.73;1000;455
5.731;1000;454
5.732;1000;454
5.733;1000;454
5.734;1000;454
5.735;1000;455
5.736;1000;456
5.737;1000;456
5.738;1000;456
5.739;1000;455
5.74;1000;453
5.741;1000;454
5.742;1000;455
5.743;1000;454
5.744;1000;454
5.745;1000;453
5.746;1000;453
5.747;1000;455
5.748;1000;455
5.749;1000;455
5.75;1000;455
5.751;1000;453
5.752;1000;455
5.753;1000;455
5.754;1000;455
5.755;1000;457
5.756;1000;459
5.757;1000;460
5.758;1000;460
5.759;1000;459
5.76;1000;459
5.761;1000;457
5.762;1000;456
5.763;1000;457
5.764;1000;459
5.765;1000;461
5.766;1000;464
5.767;1000;465
5.768;1000;465
5.769;1000;464
5.77;1000;462
5.771;1000;460
5.772;1000;459
5.773;1000;459
5.774;1000;460
5.775;1000;460
5.776;1000;462
5.777;1000;465
5.778;1000;467
5.779;1000;468
5.78;1000;469
5.781;1000;470
5.782;1000;469
5.783;1000;468
5.784;1000;467
5.785;1000;465
5.786;1000;464
5.787;1000;466
5.788;1000;471
5.789;1000;472
5.79;1000;472
5.791;1000;472
5.792;1000;470
5.793;1000;470
5.794;1000;470
5.795;1000;471
5.796;1000;472
5.797;1000;472
5.798;1000;473
5.799;1000;474
5.8;1000;474
5.801;1000;475
5.802;1000;473
5.803;1000;472
5.804;1000;472
5.805;1000;473
5.806;1000;475
5.807;1000;476
5.808;1000;477
5.809;1000;478
5.81;1000;479
5.811;1000;479
5.812;1000;479
5.813;1000;480
5.814;1000;481
5.815;1000;483
5.816;1000;483
5.817;1000;481
5.818;1000;480
5.819;1000;479
5.82;1000;478
5.821;1000;478
5.822;1000;478
5.823;1000;478
5.824;1000;477
5.825;1000;477
5.826;1000;477
5.827;1000;479
5.828;1000;481
5.829;1000;481
5.83;1000;481
5.831;1000;481
5.832;1000;482
5.833;1000;484
5.834;1000;485
5.835;1000;486
5.836;1000;486
5.837;1000;487
5.838;1000;489
5.839;1000;491
5.84;1000;491
5.841;1000;490
5.842;1000;488
5.843;1000;487
5.844;1000;487
5.845;1000;487
5.846;1000;486
5.847;1000;486
5.848;1000;487
5.849;1000;490
5.85;1000;491
5.851;1000;490
5.852;1000;490
5.853;1000;492
5.854;1000;494
5.855;1000;496
5.856;1000;496
5.857;1000;496
5.858;1000;496
5.859;1000;496
5.86;1000;497
5.861;1000;498
5.862;1000;498
5.863;1000;498
5.864;1000;496
5.865;1000;495
5.866;1000;496
5.867;1000;497
5.868;1000;497
5.869;1000;496
5.87;1000;496
5.871;1000;495
5.872;1000;496
5.873;1000;497
5.874;1000;497
5.875;1000;498
5.876;1000;498
5.877;1000;499
5.878;1000;499
5.879;1000;501
5.88;1000;504
5.881;1000;505
5.882;1000;505
5.883;1000;504
5.884;1000;501
5.885;1000;499
5.886;1000;499
5.887;1000;499
5.888;1000;501
5.889;1000;502
5.89;1000;502
5.891;1000;502
5.892;1000;504
5.893;1000;506
5.894;1000;507
5.895;1000;507
5.896;1000;507
5.897;1000;508
5.898;1000;508
5.899;1000;506
5.9;1000;504
5.901;1000;503
5.902;1000;500
5.903;1000;498
5.904;1000;496
5.905;1000;496
5.906;1000;495
5.907;1000;493
5.908;1000;495
5.909;1000;499
5.91;1000;503
5.911;1000;504
5.912;1000;505
5.913;1000;506
5.914;1000;508
5.915;1000;508
5.916;1000;509
5.917;1000;508
5.918;1000;506
5.919;1000;505
5.92;1000;504
5.921;1000;504
5.922;1000;504
5.923;1000;503
5.924;1000;502
5.925;1000;501
5.926;1000;502
5.927;1000;502
5.928;1000;503
5.929;1000;504
5.93;1000;505
5.931;1000;507
5.932;1000;509
5.933;1000;511
5.934;1000;512
5.935;1000;512
5.936;1000;512
5.937;1000;512
5.938;1000;512
5.939;1000;511
5.94;1000;510
5.941;1000;510
5.942;1000;508
5.943;1000;505
5.944;1000;503
5.945;1000;502
5.946;1000;502
5.947;1000;502
5.948;1000;504
5.949;1000;505
5.95;1000;508
5.951;1000;510
5.952;1000;512
5.953;1000;514
5.954;1000;515
5.955;1000;519
5.956;1000;521
5.957;1000;519
5.958;1000;517
5.959;1000;514
5.96;1000;512
5.961;1000;512
5.962;1000;511
5.963;1000;510
5.964;1000;509
5.965;1000;509
5.966;1000;510
5.967;1000;510
5.968;1000;510
5.969;1000;510
5.97;1000;510
5.971;1000;509
5.972;1000;508
5.973;1000;509
5.974;1000;511
5.975;1000;511
5.976;1000;513
5.977;1000;512
5.978;1000;511
5.979;1000;510
5.98;1000;511
5.981;1000;510
5.982;1000;510
5.983;1000;508
5.984;1000;505
5.985;1000;504
5.986;1000;503
5.987;1000;503
5.988;1000;505
5.989;1000;506
5.99;1000;507
5.991;1000;507
5.992;1000;508
5.993;1000;510
5.994;1000;512
5.995;1000;512
5.996;1000;512
5.997;1000;512
5.998;1000;510
5.999;1000;508
6;1000;509
6.001;1000;512
6.002;1000;512
6.003;1000;512
6.004;1000;511
6.005;1000;510
6.006;1000;508
6.007;1000;507
6.008;1000;508
6.009;1000;509
6.01;1000;510
6.011;1000;512
6.012;1000;513
6.013;1000;512
6.014;1000;512
6.015;1000;512
6.016;1000;512
6.017;1000;512
6.018;1000;512
6.019;1000;511
6.02;1000;511
6.021;1000;509
6.022;1000;508
6.023;1000;508
6.024;1000;507
6.025;1000;505
6.026;1000;504
6.027;1000;504
6.028;1000;504
6.029;1000;506
6.03;1000;507
6.031;1000;508
6.032;1000;509
6.033;1000;510
6.034;1000;509
6.035;1000;509
6.036;1000;510
6.037;1000;512
6.038;1000;513
6.039;1000;515
6.04;1000;514
6.041;1000;513
6.042;1000;512
6.043;1000;512
6.044;1000;512
6.045;1000;511
6.046;1000;510
6.047;1000;509
6.048;1000;510
6.049;1000;509
6.05;1000;508
6.051;1000;507
6.052;1000;508
6.053;1000;511
6.054;1000;512
6.055;1000;512
6.056;1000;513
6.057;1000;513
6.058;1000;514
6.059;1000;513
6.06;1000;513
6.061;1000;511
6.062;1000;509
6.063;1000;510
6.064;1000;508
6.065;1000;506
6.066;1000;507
6.067;1000;509
6.068;1000;510
6.069;1000;512
6.07;1000;514
6.071;1000;516
6.072;1000;518
6.073;1000;520
6.074;1000;520
6.075;1000;520
6.076;1000;518
6.077;1000;515
6.078;1000;514
6.079;1000;512
6.08;1000;513
6.081;1000;514
6.082;1000;514
6.083;1000;515
6.084;1000;516
6.085;1000;517
6.086;1000;519
6.087;1000;519
6.088;1000;519
6.089;1000;520
6.09;1000;519
6.091;1000;519
6.092;1000;519
6.093;1000;521
6.094;1000;523
6.095;1000;523
6.096;1000;523
6.097;1000;522
6.098;1000;520
6.099;1000;519
6.1;1000;519
6.101;1000;520
6.102;1000;520
6.103;1000;521
6.104;1000;523
6.105;1000;524
6.106;1000;523
6.107;1000;523
6.108;1000;522
6.109;1000;520
6.11;1000;519
6.111;1000;518
6.112;1000;516
6.113;1000;516
6.114;1000;516
6.115;1000;514
6.116;1000;512
6.117;1000;510
6.118;1000;508
6.119;1000;505
6.12;1000;503
6.121;1000;502
6.122;1000;501
6.123;1000;501
6.124;1000;502
6.125;1000;504
6.126;1000;508
6.127;1000;509
6.128;1000;510
6.129;1000;511
6.13;1000;511
6.131;1000;510
6.132;1000;509
6.133;1000;510
6.134;1000;511
6.135;1000;512
6.136;1000;513
6.137;1000;512
6.138;1000;512
6.139;1000;511
6.14;1000;511
6.141;1000;510
6.142;1000;508
6.143;1000;507
6.144;1000;506
6.145;1000;505
6.146;1000;505
6.147;1000;506
6.148;1000;508
6.149;1000;509
6.15;1000;509
6.151;1000;508
6.152;1000;506
6.153;1000;506
6.154;1000;507
6.155;1000;508
6.156;1000;508
6.157;1000;511
6.158;1000;515
6.159;1000;516
6.16;1000;515
6.161;1000;513
6.162;1000;510
6.163;1000;508
6.164;1000;506
6.165;1000;505
6.166;1000;505
6.167;1000;506
6.168;1000;506
6.169;1000;508
6.17;1000;509
6.171;1000;509
6.172;1000;510
6.173;1000;510
6.174;1000;509
6.175;1000;508
6.176;1000;509
6.177;1000;511
6.178;1000;513
6.179;1000;514
6.18;1000;513
6.181;1000;511
6.182;1000;509
6.183;1000;510
6.184;1000;509
6.185;1000;508
6.186;1000;508
6.187;1000;506
6.188;1000;506
6.189;1000;505
6.19;1000;507
6.191;1000;508
6.192;1000;509
6.193;1000;511
6.194;1000;511
6.195;1000;513
6.196;1000;513
6.197;1000;512
6.198;1000;512
6.199;1000;510
6.2;1000;509
6.201;1000;508
6.202;1000;507
6.203;1000;507
6.204;1000;505
6.205;1000;506
6.206;1000;505
6.207;1000;505
6.208;1000;505
6.209;1000;504
6.21;1000;501
6.211;1000;499
6.212;1000;497
6.213;1000;496
6.214;1000;495
6.215;1000;492
6.216;1000;491
6.217;1000;489
6.218;1000;488
6.219;1000;484
6.22;1000;483
6.221;1000;483
6.222;1000;485
6.223;1000;488
6.224;1000;491
6.225;1000;496
6.226;1000;502
6.227;1000;511
6.228;1000;521
6.229;1000;533
6.23;1000;545
6.231;1000;556
6.232;1000;568
6.233;1000;581
6.234;1000;594
6.235;1000;607
6.236;1000;620
6.237;1000;634
6.238;1000;647
6.239;1000;656
6.24;1000;664
6.241;1000;672
6.242;1000;679
6.243;1000;687
6.244;1000;694
6.245;1000;700
6.246;1000;705
6.247;1000;710
6.248;1000;715
6.249;1000;719
6.25;1000;721
6.251;1000;721
6.252;1000;717
6.253;1000;709
6.254;1000;693
6.255;1000;674
6.256;1000;653
6.257;1000;629
6.258;1000;604
6.259;1000;579
6.26;1000;554
6.261;1000;534
6.262;1000;519
6.263;1000;505
6.264;1000;496
6.265;1000;487
6.266;1000;478
6.267;1000;472
6.268;1000;469
6.269;1000;466
6.27;1000;464
6.271;1000;463
6.272;1000;463
6.273;1000;463
6.274;1000;463
6.275;1000;463
6.276;1000;464
6.277;1000;463
6.278;1000;463
6.279;1000;463
6.28;1000;463
6.281;1000;462
6.282;1000;460
6.283;1000;460
6.284;1000;460
6.285;1000;460
6.286;1000;461
6.287;1000;460
6.288;1000;460
6.289;1000;461
6.29;1000;462
6.291;1000;464
6.292;1000;467
6.293;1000;470
6.294;1000;472
6.295;1000;474
6.296;1000;475
6.297;1000;474
6.298;1000;475
6.299;1000;474
6.3;1000;475
6.301;1000;476
6.302;1000;476
6.303;1000;475
6.304;1000;475
6.305;1000;475
6.306;1000;475
6.307;1000;475
6.308;1000;473
6.309;1000;473
6.31;1000;473
6.311;1000;474
6.312;1000;475
6.313;1000;476
6.314;1000;478
6.315;1000;479
6.316;1000;479
6.317;1000;480
6.318;1000;482
6.319;1000;482
6.32;1000;482
6.321;1000;482
6.322;1000;482
6.323;1000;482
6.324;1000;480
6.325;1000;480
6.326;1000;480
6.327;1000;483
6.328;1000;484
6.329;1000;484
6.33;1000;483
6.331;1000;482
6.332;1000;481
6.333;1000;482
6.334;1000;482
6.335;1000;484
6.336;1000;486
6.337;1000;487
6.338;1000;490
6.339;1000;491
6.34;1000;489
6.341;1000;487
6.342;1000;486
6.343;1000;485
6.344;1000;483
6.345;1000;482
6.346;1000;482
6.347;1000;485
6.348;1000;488
6.349;1000;488
6.35;1000;488
6.351;1000;488
6.352;1000;488
6.353;1000;491
6.354;1000;493
6.355;1000;496
6.356;1000;497
6.357;1000;498
6.358;1000;498
6.359;1000;498
6.36;1000;497
6.361;1000;496
6.362;1000;493
6.363;1000;491
6.364;1000;490
6.365;1000;489
6.366;1000;489
6.367;1000;491
6.368;1000;494
6.369;1000;494
6.37;1000;495
6.371;1000;495
6.372;1000;496
6.373;1000;497
6.374;1000;499
6.375;1000;499
6.376;1000;499
6.377;1000;497
6.378;1000;497
6.379;1000;497
6.38;1000;497
6.381;1000;499
6.382;1000;496
6.383;1000;494
6.384;1000;493
6.385;1000;493
6.386;1000;493
6.387;1000;494
6.388;1000;495
6.389;1000;496
6.39;1000;496
6.391;1000;496
6.392;1000;497
6.393;1000;499
6.394;1000;502
6.395;1000;502
6.396;1000;503
6.397;1000;507
6.398;1000;511
6.399;1000;512
6.4;1000;512
6.401;1000;512
6.402;1000;511
6.403;1000;510
6.404;1000;510
6.405;1000;510
6.406;1000;510
6.407;1000;508
6.408;1000;508
6.409;1000;508
6.41;1000;507
6.411;1000;507
6.412;1000;508
6.413;1000;510
6.414;1000;514
6.415;1000;519
6.416;1000;521
6.417;1000;521
6.418;1000;520
6.419;1000;518
6.42;1000;517
6.421;1000;518
6.422;1000;518
6.423;1000;518
6.424;1000;517
6.425;1000;517
6.426;1000;517
6.427;1000;518
6.428;1000;519
6.429;1000;519
6.43;1000;520
6.431;1000;522
6.432;1000;524
6.433;1000;525
6.434;1000;526
6.435;1000;528
6.436;1000;530
6.437;1000;528
6.438;1000;527
6.439;1000;526
6.44;1000;526
6.441;1000;528
6.442;1000;529
6.443;1000;528
6.444;1000;528
6.445;1000;528
6.446;1000;529
6.447;1000;531
6.448;1000;533
6.449;1000;534
6.45;1000;535
6.451;1000;536
6.452;1000;537
6.453;1000;539
6.454;1000;541
6.455;1000;542
6.456;1000;543
6.457;1000;544
6.458;1000;545
6.459;1000;545
6.46;1000;547
6.461;1000;546
6.462;1000;545
6.463;1000;545
6.464;1000;545
6.465;1000;545
6.466;1000;545
6.467;1000;547
6.468;1000;549
6.469;1000;550
6.47;1000;550
6.471;1000;551
6.472;1000;552
6.473;1000;555
6.474;1000;557
6.475;1000;558
6.476;1000;558
6.477;1000;558
6.478;1000;558
6.479;1000;558
6.48;1000;558
6.481;1000;558
6.482;1000;558
6.483;1000;556
6.484;1000;556
6.485;1000;555
6.486;1000;555
6.487;1000;556
6.488;1000;557
6.489;1000;558
6.49;1000;558
6.491;1000;557
6.492;1000;555
6.493;1000;555
6.494;1000;556
6.495;1000;558
6.496;1000;559
6.497;1000;558
6.498;1000;558
6.499;1000;556
6.5;1000;555
6.501;1000;554
6.502;1000;551
6.503;1000;548
6.504;1000;545
6.505;1000;543
6.506;1000;540
6.507;1000;539
6.508;1000;539
6.509;1000;540
6.51;1000;540
6.511;1000;540
6.512;1000;540
6.513;1000;541
6.514;1000;542
6.515;1000;540
6.516;1000;537
6.517;1000;533
6.518;1000;529
6.519;1000;526
6.52;1000;524
6.521;1000;520
6.522;1000;517
6.523;1000;513
6.524;1000;510
6.525;1000;507
6.526;1000;504
6.527;1000;501
6.528;1000;498
6.529;1000;496
6.53;1000;494
6.531;1000;493
6.532;1000;492
6.533;1000;491
6.534;1000;490
6.535;1000;489
6.536;1000;487
6.537;1000;486
6.538;1000;483
6.539;1000;479
6.54;1000;475
6.541;1000;474
6.542;1000;475
6.543;1000;474
6.544;1000;471
6.545;1000;468
6.546;1000;464
6.547;1000;462
6.548;1000;462
6.549;1000;461
6.55;1000;460
6.551;1000;459
6.552;1000;459
6.553;1000;459
6.554;1000;458
6.555;1000;457
6.556;1000;457
6.557;1000;455
6.558;1000;454
6.559;1000;453
6.56;1000;452
6.561;1000;450
6.562;1000;448
6.563;1000;446
6.564;1000;447
6.565;1000;450
6.566;1000;453
6.567;1000;455
6.568;1000;454
6.569;1000;452
6.57;1000;451
6.571;1000;453
6.572;1000;454
6.573;1000;455
6.574;1000;456
6.575;1000;456
6.576;1000;455
6.577;1000;455
6.578;1000;456
6.579;1000;455
6.58;1000;455
6.581;1000;454
6.582;1000;452
6.583;1000;452
6.584;1000;453
6.585;1000;453
6.586;1000;453
6.587;1000;453
6.588;1000;454
6.589;1000;455
6.59;1000;454
6.591;1000;455
6.592;1000;456
6.593;1000;457
6.594;1000;459
6.595;1000;460
6.596;1000;461
6.597;1000;462
6.598;1000;462
6.599;1000;462
6.6;1000;463
6.601;1000;464
6.602;1000;462
6.603;1000;461
6.604;1000;459
6.605;1000;459
6.606;1000;458
6.607;1000;456
6.608;1000;454
6.609;1000;455
6.61;1000;458
6.611;1000;462
6.612;1000;467
6.613;1000;469
6.614;1000;472
6.615;1000;474
6.616;1000;476
6.617;1000;477
6.618;1000;478
6.619;1000;480
6.62;1000;480
6.621;1000;479
6.622;1000;477
6.623;1000;475
6.624;1000;473
6.625;1000;473
6.626;1000;475
6.627;1000;477
6.628;1000;479
6.629;1000;479
6.63;1000;479
6.631;1000;478
6.632;1000;479
6.633;1000;481
6.634;1000;482
6.635;1000;483
6.636;1000;484
6.637;1000;483
6.638;1000;482
6.639;1000;481
6.64;1000;480
6.641;1000;480
6.642;1000;480
6.643;1000;481
6.644;1000;481
6.645;1000;483
6.646;1000;484
6.647;1000;485
6.648;1000;486
6.649;1000;486
6.65;1000;487
6.651;1000;487
6.652;1000;488
6.653;1000;489
6.654;1000;491
6.655;1000;490
6.656;1000;489
6.657;1000;489
6.658;1000;491
6.659;1000;490
6.66;1000;488
6.661;1000;486
6.662;1000;484
6.663;1000;483
6.664;1000;486
6.665;1000;487
6.666;1000;488
6.667;1000;487
6.668;1000;489
6.669;1000;489
6.67;1000;489
6.671;1000;489
6.672;1000;489
6.673;1000;490
6.674;1000;491
6.675;1000;493
6.676;1000;495
6.677;1000;496
6.678;1000;497
6.679;1000;496
6.68;1000;496
6.681;1000;496
6.682;1000;494
6.683;1000;492
6.684;1000;491
6.685;1000;492
6.686;1000;492
6.687;1000;493
6.688;1000;493
6.689;1000;495
6.69;1000;499
6.691;1000;503
6.692;1000;505
6.693;1000;507
6.694;1000;507
6.695;1000;505
6.696;1000;504
6.697;1000;502
6.698;1000;499
6.699;1000;498
6.7;1000;496
6.701;1000;496
6.702;1000;497
6.703;1000;497
6.704;1000;498
6.705;1000;499
6.706;1000;500
6.707;1000;502
6.708;1000;505
6.709;1000;508
6.71;1000;513
6.711;1000;515
6.712;1000;516
6.713;1000;517
6.714;1000;517
6.715;1000;516
6.716;1000;515
6.717;1000;513
6.718;1000;512
6.719;1000;512
6.72;1000;510
6.721;1000;509
6.722;1000;507
6.723;1000;504
6.724;1000;504
6.725;1000;504
6.726;1000;506
6.727;1000;507
6.728;1000;507
6.729;1000;508
6.73;1000;508
6.731;1000;508
6.732;1000;509
6.733;1000;510
6.734;1000;511
6.735;1000;512
6.736;1000;513
6.737;1000;515
6.738;1000;516
6.739;1000;516
6.74;1000;516
6.741;1000;516
6.742;1000;514
6.743;1000;511
6.744;1000;509
6.745;1000;509
6.746;1000;510
6.747;1000;510
6.748;1000;510
6.749;1000;511
6.75;1000;512
6.751;1000;513
6.752;1000;513
6.753;1000;513
6.754;1000;512
6.755;1000;513
6.756;1000;513
6.757;1000;513
6.758;1000;512
6.759;1000;511
6.76;1000;511
6.761;1000;510
6.762;1000;508
6.763;1000;508
6.764;1000;508
6.765;1000;508
6.766;1000;509
6.767;1000;509
6.768;1000;510
6.769;1000;511
6.77;1000;513
6.771;1000;514
6.772;1000;515
6.773;1000;515
6.774;1000;516
6.775;1000;516
6.776;1000;516
6.777;1000;517
6.778;1000;517
6.779;1000;516
6.78;1000;517
6.781;1000;516
6.782;1000;512
6.783;1000;511
6.784;1000;513
6.785;1000;512
6.786;1000;511
6.787;1000;511
6.788;1000;511
6.789;1000;511
6.79;1000;511
6.791;1000;511
6.792;1000;513
6.793;1000;515
6.794;1000;515
6.795;1000;515
6.796;1000;513
6.797;1000;512
6.798;1000;512
6.799;1000;512
6.8;1000;512
6.801;1000;513
6.802;1000;513
6.803;1000;511
6.804;1000;509
6.805;1000;510
6.806;1000;513
6.807;1000;515
6.808;1000;516
6.809;1000;515
6.81;1000;516
6.811;1000;515
6.812;1000;514
6.813;1000;516
6.814;1000;516
6.815;1000;515
6.816;1000;513
6.817;1000;512
6.818;1000;513
6.819;1000;513
6.82;1000;513
6.821;1000;512
6.822;1000;512
6.823;1000;512
6.824;1000;513
6.825;1000;513
6.826;1000;514
6.827;1000;517
6.828;1000;519
6.829;1000;519
6.83;1000;518
6.831;1000;516
6.832;1000;515
6.833;1000;515
6.834;1000;516
6.835;1000;518
6.836;1000;518
6.837;1000;517
6.838;1000;516
6.839;1000;514
6.84;1000;512
6.841;1000;512
6.842;1000;512
6.843;1000;513
6.844;1000;514
6.845;1000;512
6.846;1000;511
6.847;1000;512
6.848;1000;512
6.849;1000;512
6.85;1000;514
6.851;1000;514
6.852;1000;514
6.853;1000;515
6.854;1000;516
6.855;1000;518
6.856;1000;518
6.857;1000;517
6.858;1000;515
6.859;1000;511
6.86;1000;510
6.861;1000;511
6.862;1000;512
6.863;1000;513
6.864;1000;513
6.865;1000;512
6.866;1000;512
6.867;1000;514
6.868;1000;514
6.869;1000;514
6.87;1000;513
6.871;1000;514
6.872;1000;514
6.873;1000;515
6.874;1000;516
6.875;1000;517
6.876;1000;517
6.877;1000;516
6.878;1000;516
6.879;1000;516
6.88;1000;516
6.881;1000;515
6.882;1000;513
6.883;1000;512
6.884;1000;511
6.885;1000;510
6.886;1000;508
6.887;1000;508
6.888;1000;508
6.889;1000;505
6.89;1000;504
6.891;1000;505
6.892;1000;506
6.893;1000;510
6.894;1000;513
6.895;1000;514
6.896;1000;514
6.897;1000;516
6.898;1000;518
6.899;1000;519
6.9;1000;518
6.901;1000;516
6.902;1000;513
6.903;1000;511
6.904;1000;510
6.905;1000;510
6.906;1000;510
6.907;1000;511
6.908;1000;513
6.909;1000;515
6.91;1000;515
6.911;1000;516
6.912;1000;515
6.913;1000;516
6.914;1000;518
6.915;1000;519
6.916;1000;519
6.917;1000;516
6.918;1000;514
6.919;1000;513
6.92;1000;512
6.921;1000;512
6.922;1000;512
6.923;1000;512
6.924;1000;512
6.925;1000;511
6.926;1000;511
6.927;1000;510
6.928;1000;512
6.929;1000;513
6.93;1000;515
6.931;1000;515
6.932;1000;515
6.933;1000;516
6.934;1000;517
6.935;1000;518
6.936;1000;519
6.937;1000;519
6.938;1000;519
6.939;1000;518
6.94;1000;518
6.941;1000;517
6.942;1000;515
6.943;1000;513
6.944;1000;512
6.945;1000;512
6.946;1000;511
6.947;1000;510
6.948;1000;511
6.949;1000;510
6.95;1000;510
6.951;1000;511
6.952;1000;511
6.953;1000;512
6.954;1000;512
6.955;1000;512
6.956;1000;514
6.957;1000;515
6.958;1000;513
6.959;1000;511
6.96;1000;511
6.961;1000;512
6.962;1000;512
6.963;1000;512
6.964;1000;511
6.965;1000;509
6.966;1000;508
6.967;1000;509
6.968;1000;510
6.969;1000;511
6.97;1000;512
6.971;1000;512
6.972;1000;513
6.973;1000;515
6.974;1000;516
6.975;1000;518
6.976;1000;516
6.977;1000;515
6.978;1000;515
6.979;1000;513
6.98;1000;512
6.981;1000;513
6.982;1000;514
6.983;1000;514
6.984;1000;514
6.985;1000;513
6.986;1000;513
6.987;1000;513
6.988;1000;513
6.989;1000;514
6.99;1000;514
6.991;1000;514
6.992;1000;515
6.993;1000;516
6.994;1000;516
6.995;1000;517
6.996;1000;516
6.997;1000;516
6.998;1000;515
6.999;1000;514
7;1000;513
7.001;1000;511
7.002;1000;510
7.003;1000;508
7.004;1000;507
7.005;1000;507
7.006;1000;508
7.007;1000;511
7.008;1000;515
7.009;1000;519
7.01;1000;521
7.011;1000;522
7.012;1000;522
7.013;1000;523
7.014;1000;524
7.015;1000;525
7.016;1000;523
7.017;1000;520
7.018;1000;519
7.019;1000;517
7.02;1000;517
7.021;1000;517
7.022;1000;516
7.023;1000;515
7.024;1000;513
7.025;1000;511
7.026;1000;513
7.027;1000;516
7.028;1000;519
7.029;1000;519
7.03;1000;523
7.031;1000;525
7.032;1000;524
7.033;1000;523
7.034;1000;524
7.035;1000;524
7.036;1000;522
7.037;1000;519
7.038;1000;516
7.039;1000;513
7.04;1000;511
7.041;1000;509
7.042;1000;508
7.043;1000;504
7.044;1000;501
7.045;1000;501
7.046;1000;500
7.047;1000;499
7.048;1000;500
7.049;1000;501
7.05;1000;500
7.051;1000;500
7.052;1000;501
7.053;1000;502
7.054;1000;503
7.055;1000;502
7.056;1000;500
7.057;1000;499
7.058;1000;499
7.059;1000;500
7.06;1000;499
7.061;1000;500
7.062;1000;498
7.063;1000;495
7.064;1000;495
7.065;1000;496
7.066;1000;496
7.067;1000;498
7.068;1000;499
7.069;1000;498
7.07;1000;498
7.071;1000;500
7.072;1000;499
7.073;1000;499
7.074;1000;500
7.075;1000;501
7.076;1000;500
7.077;1000;499
7.078;1000;498
7.079;1000;498
7.08;1000;497
7.081;1000;497
7.082;1000;497
7.083;1000;497
7.084;1000;497
7.085;1000;496
7.086;1000;495
7.087;1000;496
7.088;1000;496
7.089;1000;496
7.09;1000;496
7.091;1000;496
7.092;1000;497
7.093;1000;498
7.094;1000;497
7.095;1000;497
7.096;1000;500
7.097;1000;503
7.098;1000;504
7.099;1000;505
7.1;1000;504
7.101;1000;504
7.102;1000;502
7.103;1000;501
7.104;1000;500
7.105;1000;500
7.106;1000;498
7.107;1000;496
7.108;1000;496
7.109;1000;496
7.11;1000;496
7.111;1000;498
7.112;1000;500
7.113;1000;504
7.114;1000;506
7.115;1000;507
7.116;1000;506
7.117;1000;505
7.118;1000;504
7.119;1000;504
7.12;1000;504
7.121;1000;502
7.122;1000;500
7.123;1000;499
7.124;1000;499
7.125;1000;499
7.126;1000;497
7.127;1000;496
7.128;1000;497
7.129;1000;497
7.13;1000;499
7.131;1000;500
7.132;1000;502
7.133;1000;501
7.134;1000;501
7.135;1000;500
7.136;1000;498
7.137;1000;495
7.138;1000;492
7.139;1000;487
7.14;1000;483
7.141;1000;478
7.142;1000;474
7.143;1000;472
7.144;1000;472
7.145;1000;471
7.146;1000;471
7.147;1000;472
7.148;1000;475
7.149;1000;479
7.15;1000;485
7.151;1000;495
7.152;1000;507
7.153;1000;520
7.154;1000;534
7.155;1000;546
7.156;1000;556
7.157;1000;564
7.158;1000;573
7.159;1000;583
7.16;1000;594
7.161;1000;608
7.162;1000;621
7.163;1000;632
7.164;1000;643
7.165;1000;651
7.166;1000;658
7.167;1000;665
7.168;1000;674
7.169;1000;681
7.17;1000;688
7.171;1000;694
7.172;1000;702
7.173;1000;709
7.174;1000;712
7.175;1000;713
7.176;1000;712
7.177;1000;707
7.178;1000;698
7.179;1000;683
7.18;1000;663
7.181;1000;642
7.182;1000;619
7.183;1000;593
7.184;1000;569
7.185;1000;549
7.186;1000;530
7.187;1000;515
7.188;1000;502
7.189;1000;492
7.19;1000;483
7.191;1000;476
7.192;1000;473
7.193;1000;471
7.194;1000;468
7.195;1000;465
7.196;1000;465
7.197;1000;464
7.198;1000;462
7.199;1000;460
7.2;1000;457
7.201;1000;456
7.202;1000;456
7.203;1000;457
7.204;1000;456
7.205;1000;455
7.206;1000;454
7.207;1000;453
7.208;1000;454
7.209;1000;454
7.21;1000;455
7.211;1000;456
7.212;1000;457
7.213;1000;459
7.214;1000;463
7.215;1000;466
7.216;1000;468
7.217;1000;469
7.218;1000;469
7.219;1000;469
7.22;1000;469
7.221;1000;469
7.222;1000;469
7.223;1000;471
7.224;1000;472
7.225;1000;471
7.226;1000;471
7.227;1000;471
7.228;1000;471
7.229;1000;471
7.23;1000;469
7.231;1000;469
7.232;1000;472
7.233;1000;476
7.234;1000;481
7.235;1000;483
7.236;1000;483
7.237;1000;483
7.238;1000;481
7.239;1000;481
7.24;1000;482
7.241;1000;483
7.242;1000;483
7.243;1000;483
7.244;1000;483
7.245;1000;483
7.246;1000;483
7.247;1000;482
7.248;1000;482
7.249;1000;484
7.25;1000;487
7.251;1000;488
7.252;1000;489
7.253;1000;489
7.254;1000;491
7.255;1000;491
7.256;1000;491
7.257;1000;490
7.258;1000;489
7.259;1000;489
7.26;1000;490
7.261;1000;492
7.262;1000;492
7.263;1000;492
7.264;1000;491
7.265;1000;489
7.266;1000;487
7.267;1000;487
7.268;1000;490
7.269;1000;493
7.27;1000;493
7.271;1000;493
7.272;1000;494
7.273;1000;495
7.274;1000;496
7.275;1000;498
7.276;1000;499
7.277;1000;500
7.278;1000;500
7.279;1000;501
7.28;1000;502
7.281;1000;501
7.282;1000;500
7.283;1000;499
7.284;1000;498
7.285;1000;497
7.286;1000;497
7.287;1000;497
7.288;1000;498
7.289;1000;499
7.29;1000;499
7.291;1000;499
7.292;1000;501
7.293;1000;505
7.294;1000;506
7.295;1000;506
7.296;1000;505
7.297;1000;504
7.298;1000;503
7.299;1000;504
7.3;1000;508
7.301;1000;511
7.302;1000;511
7.303;1000;510
7.304;1000;509
7.305;1000;508
7.306;1000;508
7.307;1000;508
7.308;1000;507
7.309;1000;507
7.31;1000;505
7.311;1000;504
7.312;1000;504
7.313;1000;507
7.314;1000;510
7.315;1000;513
7.316;1000;512
7.317;1000;511
7.318;1000;510
7.319;1000;511
7.32;1000;511
7.321;1000;511
7.322;1000;510
7.323;1000;510
7.324;1000;508
7.325;1000;508
7.326;1000;508
7.327;1000;507
7.328;1000;507
7.329;1000;507
7.33;1000;508
7.331;1000;509
7.332;1000;512
7.333;1000;514
7.334;1000;515
7.335;1000;514
7.336;1000;513
7.337;1000;512
7.338;1000;512
7.339;1000;514
7.34;1000;516
7.341;1000;516
7.342;1000;517
7.343;1000;517
7.344;1000;519
7.345;1000;519
7.346;1000;521
7.347;1000;521
7.348;1000;524
7.349;1000;524
7.35;1000;523
7.351;1000;523
7.352;1000;524
7.353;1000;526
7.354;1000;527
7.355;1000;528
7.356;1000;529
7.357;1000;530
7.358;1000;530
7.359;1000;530
7.36;1000;529
7.361;1000;529
7.362;1000;529
7.363;1000;527
7.364;1000;526
7.365;1000;526
7.366;1000;526
7.367;1000;526
7.368;1000;528
7.369;1000;529
7.37;1000;529
7.371;1000;531
7.372;1000;534
7.373;1000;538
7.374;1000;541
7.375;1000;544
7.376;1000;544
7.377;1000;542
7.378;1000;543
7.379;1000;542
7.38;1000;542
7.381;1000;543
7.382;1000;544
7.383;1000;545
7.384;1000;546
7.385;1000;547
7.386;1000;547
7.387;1000;547
7.388;1000;548
7.389;1000;549
7.39;1000;551
7.391;1000;553
7.392;1000;554
7.393;1000;554
7.394;1000;553
7.395;1000;554
7.396;1000;556
7.397;1000;557
7.398;1000;559
7.399;1000;558
7.4;1000;558
7.401;1000;559
7.402;1000;558
7.403;1000;558
7.404;1000;556
7.405;1000;555
7.406;1000;554
7.407;1000;554
7.408;1000;555
7.409;1000;555
7.41;1000;556
7.411;1000;558
7.412;1000;559
7.413;1000;558
7.414;1000;559
7.415;1000;558
7.416;1000;556
7.417;1000;555
7.418;1000;552
7.419;1000;551
7.42;1000;552
7.421;1000;553
7.422;1000;552
7.423;1000;551
7.424;1000;549
7.425;1000;548
7.426;1000;545
7.427;1000;544
7.428;1000;546
7.429;1000;548
7.43;1000;548
7.431;1000;547
7.432;1000;545
7.433;1000;544
7.434;1000;543
7.435;1000;542
7.436;1000;542
7.437;1000;540
7.438;1000;536
7.439;1000;532
7.44;1000;528
7.441;1000;526
7.442;1000;524
7.443;1000;522
7.444;1000;519
7.445;1000;515
7.446;1000;513
7.447;1000;512
7.448;1000;511
7.449;1000;510
7.45;1000;509
7.451;1000;508
7.452;1000;507
7.453;1000;506
7.454;1000;503
7.455;1000;500
7.456;1000;497
7.457;1000;495
7.458;1000;493
7.459;1000;490
7.46;1000;487
7.461;1000;485
7.462;1000;481
7.463;1000;477
7.464;1000;473
7.465;1000;471
7.466;1000;468
7.467;1000;465
7.468;1000;463
7.469;1000;462
7.47;1000;460
7.471;1000;458
7.472;1000;457
7.473;1000;456
7.474;1000;455
7.475;1000;454
7.476;1000;453
7.477;1000;452
7.478;1000;451
7.479;1000;450
7.48;1000;448
7.481;1000;447
7.482;1000;446
7.483;1000;446
7.484;1000;446
7.485;1000;446
7.486;1000;446
7.487;1000;445
7.488;1000;445
7.489;1000;446
7.49;1000;447
7.491;1000;448
7.492;1000;448
7.493;1000;449
7.494;1000;448
7.495;1000;448
7.496;1000;448
7.497;1000;449
7.498;1000;447
7.499;1000;446
7.5;1000;446
7.501;1000;446
7.502;1000;448
7.503;1000;447
7.504;1000;447
7.505;1000;446
7.506;1000;446
7.507;1000;445
7.508;1000;445
7.509;1000;446
7.51;1000;448
7.511;1000;448
7.512;1000;448
7.513;1000;449
7.514;1000;450
7.515;1000;452
7.516;1000;455
7.517;1000;457
7.518;1000;457
7.519;1000;457
7.52;1000;457
7.521;1000;458
7.522;1000;458
7.523;1000;457
7.524;1000;454
7.525;1000;452
7.526;1000;454
7.527;1000;455
7.528;1000;457
7.529;1000;459
7.53;1000;461
7.531;1000;462
7.532;1000;463
7.533;1000;466
7.534;1000;468
7.535;1000;469
7.536;1000;469
7.537;1000;470
7.538;1000;470
7.539;1000;470
7.54;1000;470
7.541;1000;470
7.542;1000;468
7.543;1000;467
7.544;1000;466
7.545;1000;466
7.546;1000;467
7.547;1000;466
7.548;1000;467
7.549;1000;469
7.55;1000;471
7.551;1000;472
7.552;1000;473
7.553;1000;473
7.554;1000;474
7.555;1000;476
7.556;1000;476
7.557;1000;478
7.558;1000;480
7.559;1000;480
7.56;1000;479
7.561;1000;481
7.562;1000;480
7.563;1000;480
7.564;1000;478
7.565;1000;478
7.566;1000;479
7.567;1000;479
7.568;1000;479
7.569;1000;480
7.57;1000;482
7.571;1000;484
7.572;1000;486
7.573;1000;489
7.574;1000;490
7.575;1000;488
7.576;1000;487
7.577;1000;486
7.578;1000;486
7.579;1000;486
7.58;1000;486
7.581;1000;485
7.582;1000;484
7.583;1000;483
7.584;1000;484
7.585;1000;484
7.586;1000;484
7.587;1000;486
7.588;1000;487
7.589;1000;489
7.59;1000;490
7.591;1000;492
7.592;1000;495
7.593;1000;498
7.594;1000;500
7.595;1000;499
7.596;1000;496
7.597;1000;493
7.598;1000;494
7.599;1000;495
7.6;1000;496
7.601;1000;497
7.602;1000;497
7.603;1000;497
7.604;1000;496
7.605;1000;495
7.606;1000;494
7.607;1000;494
7.608;1000;494
7.609;1000;495
7.61;1000;496
7.611;1000;496
7.612;1000;496
7.613;1000;498
7.614;1000;500
7.615;1000;502
7.616;1000;503
7.617;1000;504
7.618;1000;505
7.619;1000;505
7.62;1000;504
7.621;1000;503
7.622;1000;501
7.623;1000;500
7.624;1000;500
7.625;1000;500
7.626;1000;501
7.627;1000;502
7.628;1000;504
7.629;1000;505
7.63;1000;505
7.631;1000;504
7.632;1000;504
7.633;1000;506
7.634;1000;508
7.635;1000;509
7.636;1000;508
7.637;1000;508
7.638;1000;506
7.639;1000;505
7.64;1000;504
7.641;1000;504
7.642;1000;505
7.643;1000;504
7.644;1000;504
7.645;1000;504
7.646;1000;504
7.647;1000;504
7.648;1000;503
7.649;1000;501
7.65;1000;502
7.651;1000;504
7.652;1000;507
7.653;1000;507
7.654;1000;507
7.655;1000;508
7.656;1000;509
7.657;1000;510
7.658;1000;511
7.659;1000;511
7.66;1000;511
7.661;1000;510
7.662;1000;510
7.663;1000;509
7.664;1000;508
7.665;1000;507
7.666;1000;507
7.667;1000;508
7.668;1000;508
7.669;1000;507
7.67;1000;507
7.671;1000;508
7.672;1000;509
7.673;1000;512
7.674;1000;512
7.675;1000;513
7.676;1000;513
7.677;1000;513
7.678;1000;513
7.679;1000;513
7.68;1000;513
7.681;1000;512
7.682;1000;511
7.683;1000;509
7.684;1000;508
7.685;1000;506
7.686;1000;506
7.687;1000;508
7.688;1000;509
7.689;1000;511
7.69;1000;511
7.691;1000;512
7.692;1000;513
7.693;1000;512
7.694;1000;512
7.695;1000;513
7.696;1000;514
7.697;1000;514
7.698;1000;513
7.699;1000;513
7.7;1000;515
7.701;1000;518
7.702;1000;519
7.703;1000;518
7.704;1000;515
7.705;1000;513
7.706;1000;512
7.707;1000;511
7.708;1000;512
7.709;1000;513
7.71;1000;515
7.711;1000;515
7.712;1000;517
7.713;1000;518
7.714;1000;518
7.715;1000;519
7.716;1000;520
7.717;1000;519
7.718;1000;517
7.719;1000;515
7.72;1000;514
7.721;1000;513
7.722;1000;514
7.723;1000;513
7.724;1000;513
7.725;1000;513
7.726;1000;513
7.727;1000;513
7.728;1000;515
7.729;1000;516
7.73;1000;516
7.731;1000;515
7.732;1000;515
7.733;1000;515
7.734;1000;516
7.735;1000;517
7.736;1000;519
7.737;1000;521
7.738;1000;520
7.739;1000;518
7.74;1000;517
7.741;1000;516
7.742;1000;516
7.743;1000;517
7.744;1000;516
7.745;1000;515
7.746;1000;514
7.747;1000;515
7.748;1000;515
7.749;1000;516
7.75;1000;518
7.751;1000;518
7.752;1000;519
7.753;1000;522
7.754;1000;524
7.755;1000;524
7.756;1000;522
7.757;1000;519
7.758;1000;518
7.759;1000;518
7.76;1000;517
7.761;1000;515
7.762;1000;512
7.763;1000;511
7.764;1000;511
7.765;1000;512
7.766;1000;512
7.767;1000;511
7.768;1000;513
7.769;1000;516
7.77;1000;518
7.771;1000;519
7.772;1000;519
7.773;1000;519
7.774;1000;523
7.775;1000;523
7.776;1000;524
7.777;1000;523
7.778;1000;523
7.779;1000;524
7.78;1000;524
7.781;1000;522
7.782;1000;520
7.783;1000;518
7.784;1000;517
7.785;1000;516
7.786;1000;514
7.787;1000;513
7.788;1000;513
7.789;1000;515
7.79;1000;517
7.791;1000;519
7.792;1000;519
7.793;1000;519
7.794;1000;521
7.795;1000;523
7.796;1000;523
7.797;1000;523
7.798;1000;523
7.799;1000;523
7.8;1000;523
7.801;1000;522
7.802;1000;520
7.803;1000;520
7.804;1000;519
7.805;1000;518
7.806;1000;517
7.807;1000;516
7.808;1000;515
7.809;1000;513
7.81;1000;513
7.811;1000;514
7.812;1000;519
7.813;1000;523
7.814;1000;527
7.815;1000;529
7.816;1000;529
7.817;1000;529
7.818;1000;528
7.819;1000;526
7.82;1000;525
7.821;1000;525
7.822;1000;524
7.823;1000;523
7.824;1000;521
7.825;1000;519
7.826;1000;519
7.827;1000;519
7.828;1000;519
7.829;1000;518
7.83;1000;519
7.831;1000;521
7.832;1000;523
7.833;1000;524
7.834;1000;524
7.835;1000;523
7.836;1000;523
7.837;1000;524
7.838;1000;524
7.839;1000;525
7.84;1000;524
7.841;1000;523
7.842;1000;521
7.843;1000;521
7.844;1000;521
7.845;1000;520
7.846;1000;518
7.847;1000;518
7.848;1000;519
7.849;1000;519
7.85;1000;519
7.851;1000;519
7.852;1000;519
7.853;1000;520
7.854;1000;523
7.855;1000;523
7.856;1000;523
7.857;1000;523
7.858;1000;523
7.859;1000;523
7.86;1000;523
7.861;1000;523
7.862;1000;520
7.863;1000;519
7.864;1000;518
7.865;1000;517
7.866;1000;517
7.867;1000;515
7.868;1000;517
7.869;1000;520
7.87;1000;524
7.871;1000;526
7.872;1000;526
7.873;1000;526
7.874;1000;526
7.875;1000;524
7.876;1000;522
7.877;1000;521
7.878;1000;520
7.879;1000;517
7.88;1000;515
7.881;1000;515
7.882;1000;518
7.883;1000;520
7.884;1000;523
7.885;1000;524
7.886;1000;523
7.887;1000;521
7.888;1000;521
7.889;1000;522
7.89;1000;522
7.891;1000;523
7.892;1000;526
7.893;1000;528
7.894;1000;529
7.895;1000;528
7.896;1000;526
7.897;1000;525
7.898;1000;524
7.899;1000;522
7.9;1000;521
7.901;1000;521
7.902;1000;521
7.903;1000;522
7.904;1000;523
7.905;1000;522
7.906;1000;520
7.907;1000;520
7.908;1000;521
7.909;1000;522
7.91;1000;521
7.911;1000;522
7.912;1000;523
7.913;1000;526
7.914;1000;527
7.915;1000;528
7.916;1000;526
7.917;1000;526
7.918;1000;526
7.919;1000;528
7.92;1000;529
7.921;1000;528
7.922;1000;528
7.923;1000;529
7.924;1000;529
7.925;1000;529
7.926;1000;530
7.927;1000;531
7.928;1000;531
7.929;1000;533
7.93;1000;536
7.931;1000;536
7.932;1000;535
7.933;1000;535
7.934;1000;536
7.935;1000;535
7.936;1000;532
7.937;1000;530
7.938;1000;531
7.939;1000;531
7.94;1000;532
7.941;1000;531
7.942;1000;531
7.943;1000;531
7.944;1000;528
7.945;1000;526
7.946;1000;526
7.947;1000;525
7.948;1000;524
7.949;1000;521
7.95;1000;520
7.951;1000;518
7.952;1000;517
7.953;1000;518
7.954;1000;518
7.955;1000;517
7.956;1000;515
7.957;1000;514
7.958;1000;513
7.959;1000;513
7.96;1000;513
7.961;1000;515
7.962;1000;515
7.963;1000;513
7.964;1000;513
7.965;1000;514
7.966;1000;514
7.967;1000;515
7.968;1000;515
7.969;1000;515
7.97;1000;516
7.971;1000;518
7.972;1000;520
7.973;1000;520
7.974;1000;518
7.975;1000;516
7.976;1000;515
7.977;1000;514
7.978;1000;513
7.979;1000;512
7.98;1000;513
7.981;1000;515
7.982;1000;515
7.983;1000;515
7.984;1000;513
7.985;1000;513
7.986;1000;513
7.987;1000;514
7.988;1000;515
7.989;1000;516
7.99;1000;516
7.991;1000;517
7.992;1000;519
7.993;1000;521
7.994;1000;522
7.995;1000;521
7.996;1000;520
7.997;1000;519
7.998;1000;518
7.999;1000;518
8;1000;518
8.001;1000;519
8.002;1000;518
8.003;1000;516
8.004;1000;513
8.005;1000;512
8.006;1000;513
8.007;1000;513
8.008;1000;513
8.009;1000;513
8.01;1000;514
8.011;1000;515
8.012;1000;515
8.013;1000;513
8.014;1000;512
8.015;1000;512
8.016;1000;511
8.017;1000;512
8.018;1000;513
8.019;1000;513
8.02;1000;513
8.021;1000;513
8.022;1000;512
8.023;1000;511
8.024;1000;511
8.025;1000;512
8.026;1000;513
8.027;1000;511
8.028;1000;511
8.029;1000;509
8.03;1000;507
8.031;1000;508
8.032;1000;510
8.033;1000;513
8.034;1000;515
8.035;1000;518
8.036;1000;519
8.037;1000;521
8.038;1000;520
8.039;1000;520
8.04;1000;518
8.041;1000;516
8.042;1000;512
8.043;1000;509
8.044;1000;506
8.045;1000;505
8.046;1000;503
8.047;1000;501
8.048;1000;496
8.049;1000;493
8.05;1000;489
8.051;1000;486
8.052;1000;485
8.053;1000;484
8.054;1000;484
8.055;1000;486
8.056;1000;488
8.057;1000;492
