time;Sampling Frequency;ECG;Pulse
0;1000;480;508
0.001;1000;478;509
0.002;1000;478;511
0.003;1000;478;513
0.004;1000;479;511
0.005;1000;480;511
0.006;1000;480;511
0.007;1000;483;515
0.008;1000;485;511
0.009;1000;486;515
0.01;1000;486;512
0.011;1000;487;512
0.012;1000;487;515
0.013;1000;487;516
0.014;1000;487;515
0.015;1000;488;515
0.016;1000;489;515
0.017;1000;490;517
0.018;1000;489;517
0.019;1000;489;516
0.02;1000;491;516
0.021;1000;492;516
0.022;1000;491;516
0.023;1000;490;520
0.024;1000;491;518
0.025;1000;491;521
0.026;1000;492;517
0.027;1000;493;519
0.028;1000;493;521
0.029;1000;491;519
0.03;1000;494;516
0.031;1000;496;518
0.032;1000;499;520
0.033;1000;501;519
0.034;1000;502;518
0.035;1000;501;517
0.036;1000;499;519
0.037;1000;499;522
0.038;1000;500;519
0.039;1000;500;523
0.04;1000;498;519
0.041;1000;496;521
0.042;1000;498;522
0.043;1000;499;523
0.044;1000;500;521
0.045;1000;502;519
0.046;1000;502;520
0.047;1000;503;522
0.048;1000;503;522
0.049;1000;502;522
0.05;1000;503;521
0.051;1000;507;521
0.052;1000;507;523
0.053;1000;507;523
0.054;1000;508;522
0.055;1000;507;521
0.056;1000;506;522
0.057;1000;508;520
0.058;1000;507;524
0.059;1000;505;521
0.06;1000;506;519
0.061;1000;507;519
0.062;1000;507;522
0.063;1000;503;523
0.064;1000;502;521
0.065;1000;503;520
0.066;1000;504;520
0.067;1000;505;519
0.068;1000;504;524
0.069;1000;504;522
0.07;1000;505;520
0.071;1000;507;520
0.072;1000;510;523
0.073;1000;513;521
0.074;1000;516;524
0.075;1000;515;519
0.076;1000;513;520
0.077;1000;512;522
0.078;1000;511;523
0.079;1000;511;522
0.08;1000;510;519
0.081;1000;509;519
0.082;1000;509;521
0.083;1000;506;519
0.084;1000;503;523
0.085;1000;502;519
0.086;1000;502;520
0.087;1000;505;524
0.088;1000;510;520
0.089;1000;512;520
0.09;1000;513;518
0.091;1000;515;518
0.092;1000;517;520
0.093;1000;516;520
0.094;1000;515;518
0.095;1000;515;517
0.096;1000;516;518
0.097;1000;516;520
0.098;1000;517;520
0.099;1000;517;518
0.1;1000;518;518
0.101;1000;517;518
0.102;1000;515;522
0.103;1000;514;520
0.104;1000;513;519
0.105;1000;515;517
0.106;1000;519;518
0.107;1000;521;519
0.108;1000;521;518
0.109;1000;521;516
0.11;1000;520;516
0.111;1000;522;516
0.112;1000;524;518
0.113;1000;528;518
0.114;1000;529;516
0.115;1000;529;516
0.116;1000;528;517
0.117;1000;528;518
0.118;1000;528;518
0.119;1000;529;516
0.12;1000;531;515
0.121;1000;532;516
0.122;1000;533;518
0.123;1000;531;516
0.124;1000;531;514
0.125;1000;531;515
0.126;1000;530;515
0.127;1000;532;516
0.128;1000;534;514
0.129;1000;534;519
0.13;1000;536;515
0.131;1000;539;515
0.132;1000;540;518
0.133;1000;541;515
0.134;1000;542;519
0.135;1000;541;515
0.136;1000;541;516
0.137;1000;543;520
0.138;1000;543;515
0.139;1000;545;520
0.14;1000;547;517
0.141;1000;547;516
0.142;1000;548;519
0.143;1000;549;517
0.144;1000;550;519
0.145;1000;555;516
0.146;1000;554;517
0.147;1000;552;519
0.148;1000;554;519
0.149;1000;556;519
0.15;1000;558;516
0.151;1000;560;518
0.152;1000;560;519
0.153;1000;560;518
0.154;1000;559;521
0.155;1000;558;517
0.156;1000;558;517
0.157;1000;555;520
0.158;1000;555;521
0.159;1000;555;520
0.16;1000;556;518
0.161;1000;555;519
0.162;1000;553;520
0.163;1000;555;518
0.164;1000;557;522
0.165;1000;558;519
0.166;1000;560;520
0.167;1000;562;519
0.168;1000;565;524
0.169;1000;566;523
0.17;1000;564;521
0.171;1000;564;520
0.172;1000;566;524
0.173;1000;567;524
0.174;1000;564;523
0.175;1000;560;523
0.176;1000;559;523
0.177;1000;559;525
0.178;1000;558;526
0.179;1000;555;524
0.18;1000;555;525
0.181;1000;551;525
0.182;1000;549;524
0.183;1000;548;529
0.184;1000;547;526
0.185;1000;543;530
0.186;1000;543;527
0.187;1000;540;529
0.188;1000;539;529
0.189;1000;537;529
0.19;1000;536;527
0.191;1000;538;529
0.192;1000;540;531
0.193;1000;542;531
0.194;1000;539;531
0.195;1000;535;531
0.196;1000;531;532
0.197;1000;526;534
0.198;1000;523;532
0.199;1000;524;536
0.2;1000;523;533
0.201;1000;520;534
0.202;1000;517;536
0.203;1000;512;537
0.204;1000;508;536
0.205;1000;504;535
0.206;1000;500;536
0.207;1000;498;539
0.208;1000;498;540
0.209;1000;497;538
0.21;1000;496;538
0.211;1000;495;539
0.212;1000;496;541
0.213;1000;497;539
0.214;1000;492;544
0.215;1000;487;540
0.216;1000;484;541
0.217;1000;482;545
0.218;1000;481;543
0.219;1000;477;543
0.22;1000;473;542
0.221;1000;468;543
0.222;1000;467;545
0.223;1000;467;547
0.224;1000;465;544
0.225;1000;465;543
0.226;1000;466;544
0.227;1000;469;548
0.228;1000;469;548
0.229;1000;469;546
0.23;1000;468;551
0.231;1000;467;547
0.232;1000;466;550
0.233;1000;467;550
0.234;1000;465;548
0.235;1000;462;547
0.236;1000;462;548
0.237;1000;459;550
0.238;1000;457;549
0.239;1000;458;549
0.24;1000;459;548
0.241;1000;459;547
0.242;1000;458;550
0.243;1000;458;550
0.244;1000;456;549
0.245;1000;455;549
0.246;1000;454;550
0.247;1000;454;547
0.248;1000;455;552
0.249;1000;455;547
0.25;1000;458;547
0.251;1000;458;548
0.252;1000;457;548
0.253;1000;456;549
0.254;1000;456;548
0.255;1000;455;547
0.256;1000;454;547
0.257;1000;454;548
0.258;1000;453;549
0.259;1000;455;548
0.26;1000;455;547
0.261;1000;453;547
0.262;1000;451;548
0.263;1000;451;546
0.264;1000;453;550
0.265;1000;455;546
0.266;1000;456;546
0.267;1000;455;547
0.268;1000;456;547
0.269;1000;457;547
0.27;1000;458;543
0.271;1000;458;544
0.272;1000;458;546
0.273;1000;457;546
0.274;1000;456;543
0.275;1000;457;543
0.276;1000;456;543
0.277;1000;456;544
0.278;1000;458;542
0.279;1000;459;545
0.28;1000;462;541
0.281;1000;462;541
0.282;1000;460;545
0.283;1000;459;541
0.284;1000;456;541
0.285;1000;455;538
0.286;1000;456;538
0.287;1000;460;540
0.288;1000;460;540
0.289;1000;459;537
0.29;1000;461;535
0.291;1000;464;536
0.292;1000;465;538
0.293;1000;465;536
0.294;1000;464;539
0.295;1000;461;534
0.296;1000;464;535
0.297;1000;467;535
0.298;1000;469;534
0.299;1000;469;533
0.3;1000;468;530
0.301;1000;467;530
0.302;1000;466;531
0.303;1000;464;531
0.304;1000;462;530
0.305;1000;463;528
0.306;1000;464;527
0.307;1000;467;529
0.308;1000;467;529
0.309;1000;464;526
0.31;1000;465;526
0.311;1000;469;523
0.312;1000;471;524
0.313;1000;472;524
0.314;1000;472;524
0.315;1000;471;526
0.316;1000;470;521
0.317;1000;470;523
0.318;1000;471;523
0.319;1000;469;521
0.32;1000;469;519
0.321;1000;467;519
0.322;1000;466;518
0.323;1000;466;522
0.324;1000;467;519
0.325;1000;468;516
0.326;1000;470;517
0.327;1000;472;518
0.328;1000;474;518
0.329;1000;474;517
0.33;1000;473;514
0.331;1000;470;513
0.332;1000;467;514
0.333;1000;468;514
0.334;1000;472;511
0.335;1000;472;510
0.336;1000;473;511
0.337;1000;472;512
0.338;1000;470;512
0.339;1000;470;510
0.34;1000;473;508
0.341;1000;474;508
0.342;1000;474;512
0.343;1000;475;507
0.344;1000;476;511
0.345;1000;476;506
0.346;1000;475;506
0.347;1000;475;508
0.348;1000;476;508
0.349;1000;476;506
0.35;1000;477;504
0.351;1000;478;503
0.352;1000;479;504
0.353;1000;480;505
0.354;1000;478;503
0.355;1000;479;503
0.356;1000;480;502
0.357;1000;480;504
0.358;1000;477;502
0.359;1000;477;505
0.36;1000;479;501
0.361;1000;480;501
0.362;1000;480;505
0.363;1000;480;500
0.364;1000;478;502
0.365;1000;478;499
0.366;1000;479;499
0.367;1000;481;501
0.368;1000;481;502
0.369;1000;481;500
0.37;1000;482;499
0.371;1000;483;498
0.372;1000;484;498
0.373;1000;480;502
0.374;1000;478;500
0.375;1000;478;499
0.376;1000;481;498
0.377;1000;482;498
0.378;1000;480;502
0.379;1000;479;499
0.38;1000;480;497
0.381;1000;483;498
0.382;1000;483;499
0.383;1000;482;500
0.384;1000;479;499
0.385;1000;479;498
0.386;1000;482;498
0.387;1000;483;497
0.388;1000;484;502
0.389;1000;487;499
0.39;1000;489;502
0.391;1000;493;498
0.392;1000;493;496
0.393;1000;493;501
0.394;1000;493;499
0.395;1000;490;497
0.396;1000;488;498
0.397;1000;486;500
0.398;1000;486;500
0.399;1000;487;498
0.4;1000;486;497
0.401;1000;486;499
0.402;1000;486;500
0.403;1000;485;500
0.404;1000;488;499
0.405;1000;490;498
0.406;1000;490;499
0.407;1000;491;503
0.408;1000;492;498
0.409;1000;492;503
0.41;1000;495;499
0.411;1000;495;499
0.412;1000;494;501
0.413;1000;492;502
0.414;1000;491;502
0.415;1000;489;499
0.416;1000;488;500
0.417;1000;492;502
0.418;1000;492;501
0.419;1000;491;505
0.42;1000;490;502
0.421;1000;489;501
0.422;1000;489;501
0.423;1000;491;505
0.424;1000;494;504
0.425;1000;495;503
0.426;1000;496;503
0.427;1000;494;504
0.428;1000;497;505
0.429;1000;500;504
0.43;1000;501;503
0.431;1000;501;503
0.432;1000;503;505
0.433;1000;504;505
0.434;1000;504;504
0.435;1000;505;505
0.436;1000;505;504
0.437;1000;502;504
0.438;1000;501;509
0.439;1000;502;506
0.44;1000;500;510
0.441;1000;500;506
0.442;1000;501;508
0.443;1000;500;509
0.444;1000;496;508
0.445;1000;495;506
0.446;1000;496;507
0.447;1000;498;509
0.448;1000;504;510
0.449;1000;506;510
0.45;1000;507;509
0.451;1000;505;509
0.452;1000;516;511
0.453;1000;522;512
0.454;1000;527;511
0.455;1000;531;511
0.456;1000;536;512
0.457;1000;541;510
0.458;1000;545;515
0.459;1000;546;510
0.46;1000;547;512
0.461;1000;545;512
0.462;1000;545;510
0.463;1000;544;516
0.464;1000;545;513
0.465;1000;547;513
0.466;1000;551;514
0.467;1000;556;515
0.468;1000;559;516
0.469;1000;557;516
0.47;1000;555;513
0.471;1000;555;515
0.472;1000;556;517
0.473;1000;559;518
0.474;1000;560;516
0.475;1000;560;519
0.476;1000;559;515
0.477;1000;560;518
0.478;1000;561;519
0.479;1000;559;518
0.48;1000;559;516
0.481;1000;557;517
0.482;1000;552;520
0.483;1000;551;519
0.484;1000;550;517
0.485;1000;549;519
0.486;1000;551;518
0.487;1000;551;517
0.488;1000;550;521
0.489;1000;547;520
0.49;1000;547;519
0.491;1000;545;518
0.492;1000;544;521
0.493;1000;543;521
0.494;1000;543;520
0.495;1000;542;519
0.496;1000;543;519
0.497;1000;541;521
0.498;1000;539;521
0.499;1000;536;520
0.5;1000;535;520
0.501;1000;536;521
0.502;1000;535;520
0.503;1000;532;524
0.504;1000;535;521
0.505;1000;539;525
0.506;1000;540;521
0.507;1000;539;523
0.508;1000;539;523
0.509;1000;539;522
0.51;1000;540;520
0.511;1000;541;521
0.512;1000;540;523
0.513;1000;540;523
0.514;1000;540;523
0.515;1000;539;522
0.516;1000;538;523
0.517;1000;536;524
0.518;1000;536;522
0.519;1000;536;526
0.52;1000;533;521
0.521;1000;532;522
0.522;1000;531;524
0.523;1000;528;524
0.524;1000;528;523
0.525;1000;530;521
0.526;1000;528;521
0.527;1000;527;523
0.528;1000;527;525
0.529;1000;526;521
0.53;1000;527;522
0.531;1000;527;521
0.532;1000;525;523
0.533;1000;525;521
0.534;1000;525;526
0.535;1000;524;521
0.536;1000;521;521
0.537;1000;521;526
0.538;1000;521;523
0.539;1000;523;522
0.54;1000;524;520
0.541;1000;524;521
0.542;1000;521;523
0.543;1000;521;523
0.544;1000;522;520
0.545;1000;523;520
0.546;1000;522;520
0.547;1000;519;524
0.548;1000;517;523
0.549;1000;513;520
0.55;1000;511;524
0.551;1000;515;520
0.552;1000;515;523
0.553;1000;515;523
0.554;1000;515;521
0.555;1000;515;519
0.556;1000;516;519
0.557;1000;518;521
0.558;1000;520;520
0.559;1000;519;518
0.56;1000;521;518
0.561;1000;523;518
0.562;1000;522;519
0.563;1000;522;520
0.564;1000;521;518
0.565;1000;522;517
0.566;1000;523;518
0.567;1000;524;522
0.568;1000;526;517
0.569;1000;528;521
0.57;1000;529;517
0.571;1000;529;517
0.572;1000;529;519
0.573;1000;525;519
0.574;1000;523;519
0.575;1000;522;516
0.576;1000;521;517
0.577;1000;521;518
0.578;1000;522;516
0.579;1000;521;519
0.58;1000;523;516
0.581;1000;526;516
0.582;1000;527;516
0.583;1000;524;519
0.584;1000;519;518
0.585;1000;516;516
0.586;1000;513;515
0.587;1000;513;517
0.588;1000;517;518
0.589;1000;519;516
0.59;1000;520;515
0.591;1000;522;514
0.592;1000;519;516
0.593;1000;520;516
0.594;1000;522;513
0.595;1000;521;513
0.596;1000;520;514
0.597;1000;519;513
0.598;1000;519;517
0.599;1000;518;513
0.6;1000;514;518
0.601;1000;512;512
0.602;1000;509;514
0.603;1000;506;515
0.604;1000;504;513
0.605;1000;504;511
0.606;1000;505;511
0.607;1000;505;513
0.608;1000;503;514
0.609;1000;500;512
0.61;1000;497;512
0.611;1000;497;511
0.612;1000;498;512
0.613;1000;498;513
0.614;1000;500;511
0.615;1000;502;511
0.616;1000;504;512
0.617;1000;504;509
0.618;1000;501;514
0.619;1000;503;508
0.62;1000;504;510
0.621;1000;504;510
0.622;1000;504;511
0.623;1000;503;512
0.624;1000;502;510
0.625;1000;501;508
0.626;1000;500;508
0.627;1000;499;510
0.628;1000;501;508
0.629;1000;507;513
0.63;1000;510;508
0.631;1000;507;508
0.632;1000;502;508
0.633;1000;499;511
0.634;1000;500;508
0.635;1000;503;507
0.636;1000;503;507
0.637;1000;502;509
0.638;1000;502;510
0.639;1000;503;509
0.64;1000;504;507
0.641;1000;502;507
0.642;1000;498;506
0.643;1000;496;511
0.644;1000;497;509
0.645;1000;502;506
0.646;1000;503;506
0.647;1000;505;509
0.648;1000;506;509
0.649;1000;505;509
0.65;1000;504;508
0.651;1000;502;506
0.652;1000;504;508
0.653;1000;504;509
0.654;1000;508;505
0.655;1000;509;505
0.656;1000;510;506
0.657;1000;509;508
0.658;1000;504;508
0.659;1000;500;505
0.66;1000;499;505
0.661;1000;495;506
0.662;1000;495;510
0.663;1000;496;506
0.664;1000;497;510
0.665;1000;499;505
0.666;1000;499;505
0.667;1000;500;507
0.668;1000;500;505
0.669;1000;499;506
0.67;1000;501;504
0.671;1000;504;505
0.672;1000;504;507
0.673;1000;505;507
0.674;1000;507;504
0.675;1000;509;504
0.676;1000;507;504
0.677;1000;504;508
0.678;1000;504;505
0.679;1000;503;509
0.68;1000;503;505
0.681;1000;499;506
0.682;1000;498;507
0.683;1000;498;508
0.684;1000;496;506
0.685;1000;495;504
0.686;1000;494;505
0.687;1000;494;507
0.688;1000;488;508
0.689;1000;482;507
0.69;1000;480;506
0.691;1000;477;505
0.692;1000;474;508
0.693;1000;470;508
0.694;1000;470;507
0.695;1000;471;507
0.696;1000;476;508
0.697;1000;478;505
0.698;1000;483;511
0.699;1000;488;507
0.7;1000;494;505
0.701;1000;499;507
0.702;1000;505;508
0.703;1000;512;509
0.704;1000;521;508
0.705;1000;533;507
0.706;1000;546;507
0.707;1000;559;507
0.708;1000;573;511
0.709;1000;591;509
0.71;1000;610;512
0.711;1000;628;508
0.712;1000;644;505
0.713;1000;661;511
0.714;1000;676;509
0.715;1000;692;507
0.716;1000;705;508
0.717;1000;719;510
0.718;1000;730;511
0.719;1000;742;508
0.72;1000;755;508
0.721;1000;768;509
0.722;1000;779;510
0.723;1000;787;511
0.724;1000;791;509
0.725;1000;790;508
0.726;1000;783;509
0.727;1000;772;514
0.728;1000;759;509
0.729;1000;740;514
0.73;1000;719;508
0.731;1000;692;509
0.732;1000;661;511
0.733;1000;626;513
0.734;1000;594;512
0.735;1000;565;509
0.736;1000;542;510
0.737;1000;521;512
0.738;1000;507;510
0.739;1000;496;514
0.74;1000;485;511
0.741;1000;476;511
0.742;1000;471;510
0.743;1000;466;514
0.744;1000;462;511
0.745;1000;458;512
0.746;1000;455;512
0.747;1000;455;514
0.748;1000;455;513
0.749;1000;454;511
0.75;1000;452;511
0.751;1000;452;511
0.752;1000;453;513
0.753;1000;453;514
0.754;1000;452;511
0.755;1000;451;512
0.756;1000;452;512
0.757;1000;449;514
0.758;1000;448;514
0.759;1000;449;512
0.76;1000;448;512
0.761;1000;444;512
0.762;1000;444;514
0.763;1000;448;512
0.764;1000;451;511
0.765;1000;453;511
0.766;1000;456;511
0.767;1000;461;512
0.768;1000;461;513
0.769;1000;460;513
0.77;1000;458;512
0.771;1000;457;513
0.772;1000;458;512
0.773;1000;458;515
0.774;1000;460;512
0.775;1000;468;512
0.776;1000;474;513
0.777;1000;476;511
0.778;1000;475;516
0.779;1000;473;513
0.78;1000;476;516
0.781;1000;478;512
0.782;1000;477;511
0.783;1000;477;513
0.784;1000;477;517
0.785;1000;477;512
0.786;1000;478;513
0.787;1000;478;511
0.788;1000;481;516
0.789;1000;482;514
0.79;1000;482;513
0.791;1000;481;513
0.792;1000;480;515
0.793;1000;480;516
0.794;1000;482;513
0.795;1000;485;513
0.796;1000;487;513
0.797;1000;486;515
0.798;1000;485;515
0.799;1000;485;514
0.8;1000;485;513
0.801;1000;485;514
0.802;1000;482;516
0.803;1000;481;514
0.804;1000;480;516
0.805;1000;482;513
0.806;1000;483;514
0.807;1000;484;516
0.808;1000;487;514
0.809;1000;488;518
0.81;1000;490;513
0.811;1000;492;513
0.812;1000;494;515
0.813;1000;496;516
0.814;1000;496;515
0.815;1000;495;514
0.816;1000;494;514
0.817;1000;491;515
0.818;1000;489;514
0.819;1000;492;518
0.82;1000;492;514
0.821;1000;492;515
0.822;1000;491;514
0.823;1000;491;519
0.824;1000;492;515
0.825;1000;494;515
0.826;1000;495;514
0.827;1000;496;516
0.828;1000;496;516
0.829;1000;495;515
0.83;1000;495;514
0.831;1000;496;514
0.832;1000;497;516
0.833;1000;497;516
0.834;1000;495;514
0.835;1000;495;514
0.836;1000;496;514
0.837;1000;498;513
0.838;1000;501;518
0.839;1000;503;514
0.84;1000;501;518
0.841;1000;499;514
0.842;1000;498;512
0.843;1000;495;517
0.844;1000;492;515
0.845;1000;491;512
0.846;1000;493;513
0.847;1000;496;515
0.848;1000;500;515
0.849;1000;504;513
0.85;1000;506;513
0.851;1000;509;513
0.852;1000;511;515
0.853;1000;511;515
0.854;1000;510;514
0.855;1000;509;513
0.856;1000;510;514
0.857;1000;510;518
0.858;1000;508;513
0.859;1000;506;518
0.86;1000;504;514
0.861;1000;503;514
0.862;1000;500;516
0.863;1000;500;517
0.864;1000;501;515
0.865;1000;501;513
0.866;1000;503;514
0.867;1000;505;517
0.868;1000;507;517
0.869;1000;510;514
0.87;1000;513;517
0.871;1000;517;515
0.872;1000;519;517
0.873;1000;519;518
0.874;1000;515;516
0.875;1000;515;515
0.876;1000;515;513
0.877;1000;514;515
0.878;1000;515;516
0.879;1000;515;515
0.88;1000;515;513
0.881;1000;513;513
0.882;1000;512;513
0.883;1000;513;518
0.884;1000;511;515
0.885;1000;515;513
0.886;1000;517;514
0.887;1000;518;518
0.888;1000;519;515
0.889;1000;520;515
0.89;1000;524;513
0.891;1000;526;512
0.892;1000;528;515
0.893;1000;530;515
0.894;1000;531;512
0.895;1000;532;512
0.896;1000;534;512
0.897;1000;531;514
0.898;1000;527;514
0.899;1000;527;512
0.9;1000;525;512
0.901;1000;527;512
0.902;1000;527;516
0.903;1000;528;512
0.904;1000;528;516
0.905;1000;530;511
0.906;1000;533;513
0.907;1000;536;513
0.908;1000;538;514
0.909;1000;539;513
0.91;1000;539;510
0.911;1000;541;511
0.912;1000;536;513
0.913;1000;536;513
0.914;1000;539;513
0.915;1000;537;512
0.916;1000;539;511
0.917;1000;542;513
0.918;1000;543;514
0.919;1000;543;512
0.92;1000;543;512
0.921;1000;543;513
0.922;1000;542;511
0.923;1000;541;513
0.924;1000;542;515
0.925;1000;545;512
0.926;1000;549;513
0.927;1000;552;515
0.928;1000;557;516
0.929;1000;557;514
0.93;1000;559;513
0.931;1000;559;514
0.932;1000;559;516
0.933;1000;561;514
0.934;1000;560;518
0.935;1000;558;514
0.936;1000;557;514
0.937;1000;556;517
0.938;1000;555;517
0.939;1000;555;515
0.94;1000;557;513
0.941;1000;558;514
0.942;1000;558;516
0.943;1000;556;518
0.944;1000;556;515
0.945;1000;557;516
0.946;1000;556;516
0.947;1000;557;518
0.948;1000;559;517
0.949;1000;560;521
0.95;1000;562;518
0.951;1000;562;517
0.952;1000;561;522
0.953;1000;560;519
0.954;1000;559;519
0.955;1000;558;518
0.956;1000;558;519
0.957;1000;560;520
0.958;1000;559;523
0.959;1000;559;519
0.96;1000;557;520
0.961;1000;556;521
0.962;1000;555;523
0.963;1000;554;524
0.964;1000;552;523
0.965;1000;551;522
0.966;1000;549;524
0.967;1000;549;529
0.968;1000;550;524
0.969;1000;549;529
0.97;1000;547;525
0.971;1000;547;527
0.972;1000;546;528
0.973;1000;545;530
0.974;1000;544;527
0.975;1000;543;527
0.976;1000;540;528
0.977;1000;537;531
0.978;1000;535;531
0.979;1000;532;532
0.98;1000;530;531
0.981;1000;528;532
0.982;1000;526;534
0.983;1000;524;535
0.984;1000;523;535
0.985;1000;521;535
0.986;1000;519;536
0.987;1000;514;535
0.988;1000;508;539
0.989;1000;505;537
0.99;1000;504;538
0.991;1000;504;538
0.992;1000;506;539
0.993;1000;507;543
0.994;1000;505;542
0.995;1000;499;542
0.996;1000;496;543
0.997;1000;494;542
0.998;1000;492;547
0.999;1000;492;543
1;1000;490;544
1.001;1000;487;543
1.002;1000;484;547
1.003;1000;481;547
1.004;1000;479;547
1.005;1000;474;545
1.006;1000;470;546
1.007;1000;470;548
1.008;1000;471;550
1.009;1000;471;547
1.01;1000;471;549
1.011;1000;472;547
1.012;1000;475;550
1.013;1000;480;549
1.014;1000;479;554
1.015;1000;477;549
1.016;1000;472;549
1.017;1000;471;555
1.018;1000;469;551
1.019;1000;467;551
1.02;1000;469;550
1.021;1000;469;551
1.022;1000;468;552
1.023;1000;467;554
1.024;1000;465;551
1.025;1000;468;551
1.026;1000;469;551
1.027;1000;466;554
1.028;1000;465;553
1.029;1000;463;551
1.03;1000;462;556
1.031;1000;463;551
1.032;1000;464;554
1.033;1000;467;555
1.034;1000;470;553
1.035;1000;469;551
1.036;1000;468;552
1.037;1000;467;553
1.038;1000;466;553
1.039;1000;465;553
1.04;1000;464;551
1.041;1000;463;550
1.042;1000;463;552
1.043;1000;463;553
1.044;1000;463;551
1.045;1000;464;551
1.046;1000;465;551
1.047;1000;464;549
1.048;1000;464;553
1.049;1000;466;549
1.05;1000;464;551
1.051;1000;467;547
1.052;1000;469;549
1.053;1000;469;550
1.054;1000;470;547
1.055;1000;471;545
1.056;1000;471;545
1.057;1000;470;547
1.058;1000;471;546
1.059;1000;472;545
1.06;1000;470;543
1.061;1000;470;543
1.062;1000;470;544
1.063;1000;470;542
1.064;1000;471;545
1.065;1000;472;540
1.066;1000;472;541
1.067;1000;472;542
1.068;1000;472;542
1.069;1000;471;541
1.07;1000;472;537
1.071;1000;472;538
1.072;1000;472;539
1.073;1000;474;540
1.074;1000;476;535
1.075;1000;476;535
1.076;1000;473;534
1.077;1000;471;535
1.078;1000;470;535
1.079;1000;471;532
1.08;1000;469;532
1.081;1000;469;531
1.082;1000;466;532
1.083;1000;464;530
1.084;1000;465;527
1.085;1000;463;527
1.086;1000;461;526
1.087;1000;465;527
1.088;1000;469;525
1.089;1000;472;529
1.09;1000;475;525
1.091;1000;478;524
1.092;1000;480;525
1.093;1000;481;523
1.094;1000;480;526
1.095;1000;476;520
1.096;1000;473;520
1.097;1000;473;524
1.098;1000;472;519
1.099;1000;472;522
1.1;1000;472;517
1.101;1000;472;519
1.102;1000;474;519
1.103;1000;476;519
1.104;1000;476;517
1.105;1000;474;514
1.106;1000;472;514
1.107;1000;471;517
1.108;1000;471;515
1.109;1000;471;515
1.11;1000;472;512
1.111;1000;474;512
1.112;1000;476;511
1.113;1000;479;515
1.114;1000;479;511
1.115;1000;478;509
1.116;1000;479;509
1.117;1000;480;510
1.118;1000;478;511
1.119;1000;476;509
1.12;1000;474;508
1.121;1000;472;506
1.122;1000;472;505
1.123;1000;472;510
1.124;1000;473;508
1.125;1000;476;505
1.126;1000;477;505
1.127;1000;478;507
1.128;1000;476;507
1.129;1000;478;506
1.13;1000;478;503
1.131;1000;478;502
1.132;1000;478;504
1.133;1000;480;504
1.134;1000;481;501
1.135;1000;483;500
1.136;1000;483;500
1.137;1000;481;502
1.138;1000;480;502
1.139;1000;478;500
1.14;1000;476;499
1.141;1000;477;499
1.142;1000;477;504
1.143;1000;477;499
1.144;1000;473;503
1.145;1000;473;497
1.146;1000;475;498
1.147;1000;477;500
1.148;1000;480;500
1.149;1000;481;499
1.15;1000;482;495
1.151;1000;485;497
1.152;1000;485;498
1.153;1000;484;500
1.154;1000;485;496
1.155;1000;486;497
1.156;1000;487;496
1.157;1000;487;498
1.158;1000;488;496
1.159;1000;489;500
1.16;1000;487;494
1.161;1000;482;495
1.162;1000;477;499
1.163;1000;477;495
1.164;1000;479;497
1.165;1000;483;494
1.166;1000;486;494
1.167;1000;486;497
1.168;1000;486;498
1.169;1000;485;497
1.17;1000;483;495
1.171;1000;484;494
1.172;1000;487;495
1.173;1000;493;499
1.174;1000;492;498
1.175;1000;491;495
1.176;1000;494;496
1.177;1000;494;498
1.178;1000;496;496
1.179;1000;496;499
1.18;1000;494;497
1.181;1000;493;496
1.182;1000;493;499
1.183;1000;492;498
1.184;1000;491;498
1.185;1000;487;498
1.186;1000;487;498
1.187;1000;489;501
1.188;1000;492;499
1.189;1000;494;501
1.19;1000;494;497
1.191;1000;492;499
1.192;1000;492;501
1.193;1000;494;501
1.194;1000;495;502
1.195;1000;496;499
1.196;1000;495;500
1.197;1000;494;502
1.198;1000;496;502
1.199;1000;496;500
1.2;1000;494;499
1.201;1000;492;501
1.202;1000;491;503
1.203;1000;490;502
1.204;1000;492;505
1.205;1000;492;502
1.206;1000;494;502
1.207;1000;498;507
1.208;1000;500;504
1.209;1000;501;505
1.21;1000;502;502
1.211;1000;501;502
1.212;1000;503;505
1.213;1000;505;507
1.214;1000;504;503
1.215;1000;503;502
1.216;1000;500;504
1.217;1000;500;505
1.218;1000;498;506
1.219;1000;495;504
1.22;1000;497;504
1.221;1000;497;505
1.222;1000;499;510
1.223;1000;499;506
1.224;1000;499;510
1.225;1000;499;506
1.226;1000;497;508
1.227;1000;497;509
1.228;1000;498;510
1.229;1000;500;509
1.23;1000;502;507
1.231;1000;503;508
1.232;1000;505;510
1.233;1000;507;510
1.234;1000;508;510
1.235;1000;508;510
1.236;1000;508;510
1.237;1000;511;512
1.238;1000;511;512
1.239;1000;510;512
1.24;1000;510;512
1.241;1000;511;513
1.242;1000;510;511
1.243;1000;510;516
1.244;1000;508;514
1.245;1000;505;511
1.246;1000;504;512
1.247;1000;505;515
1.248;1000;505;517
1.249;1000;504;516
1.25;1000;506;514
1.251;1000;507;513
1.252;1000;510;514
1.253;1000;511;519
1.254;1000;514;516
1.255;1000;518;519
1.256;1000;518;515
1.257;1000;518;514
1.258;1000;519;520
1.259;1000;518;518
1.26;1000;512;515
1.261;1000;508;516
1.262;1000;504;519
1.263;1000;498;520
1.264;1000;497;517
1.265;1000;498;516
1.266;1000;502;517
1.267;1000;505;519
1.268;1000;507;519
1.269;1000;508;518
1.27;1000;512;518
1.271;1000;513;518
1.272;1000;512;523
1.273;1000;513;519
1.274;1000;515;523
1.275;1000;517;518
1.276;1000;516;519
1.277;1000;515;521
1.278;1000;516;523
1.279;1000;517;521
1.28;1000;514;519
1.281;1000;512;520
1.282;1000;509;522
1.283;1000;510;520
1.284;1000;512;524
1.285;1000;513;520
1.286;1000;511;521
1.287;1000;510;525
1.288;1000;511;521
1.289;1000;512;523
1.29;1000;512;520
1.291;1000;513;520
1.292;1000;515;522
1.293;1000;513;523
1.294;1000;512;520
1.295;1000;512;519
1.296;1000;512;521
1.297;1000;513;523
1.298;1000;512;523
1.299;1000;512;521
1.3;1000;513;521
1.301;1000;514;521
1.302;1000;514;525
1.303;1000;514;523
1.304;1000;513;526
1.305;1000;513;523
1.306;1000;514;522
1.307;1000;515;524
1.308;1000;517;522
1.309;1000;516;523
1.31;1000;513;520
1.311;1000;514;521
1.312;1000;515;523
1.313;1000;517;524
1.314;1000;517;521
1.315;1000;517;519
1.316;1000;516;520
1.317;1000;516;524
1.318;1000;517;524
1.319;1000;517;521
1.32;1000;517;525
1.321;1000;516;522
1.322;1000;515;524
1.323;1000;513;525
1.324;1000;513;524
1.325;1000;515;521
1.326;1000;516;521
1.327;1000;514;524
1.328;1000;513;524
1.329;1000;515;523
1.33;1000;515;522
1.331;1000;514;523
1.332;1000;513;524
1.333;1000;512;523
1.334;1000;515;526
1.335;1000;515;521
1.336;1000;514;522
1.337;1000;514;524
1.338;1000;515;525
1.339;1000;516;523
1.34;1000;517;520
1.341;1000;518;520
1.342;1000;516;522
1.343;1000;514;523
1.344;1000;513;520
1.345;1000;514;520
1.346;1000;514;519
1.347;1000;515;522
1.348;1000;516;521
1.349;1000;515;525
1.35;1000;516;520
1.351;1000;516;519
1.352;1000;515;524
1.353;1000;517;519
1.354;1000;516;521
1.355;1000;514;518
1.356;1000;514;518
1.357;1000;513;520
1.358;1000;515;521
1.359;1000;517;520
1.36;1000;517;518
1.361;1000;519;518
1.362;1000;520;519
1.363;1000;517;520
1.364;1000;515;517
1.365;1000;515;518
1.366;1000;516;517
1.367;1000;517;516
1.368;1000;517;521
1.369;1000;520;518
1.37;1000;523;521
1.371;1000;521;516
1.372;1000;519;518
1.373;1000;515;519
1.374;1000;513;518
1.375;1000;513;515
1.376;1000;513;515
1.377;1000;512;517
1.378;1000;512;517
1.379;1000;513;516
1.38;1000;513;515
1.381;1000;513;515
1.382;1000;514;515
1.383;1000;514;519
1.384;1000;514;514
1.385;1000;512;514
1.386;1000;510;514
1.387;1000;510;514
1.388;1000;511;515
1.389;1000;513;513
1.39;1000;515;513
1.391;1000;517;513
1.392;1000;517;515
1.393;1000;515;515
1.394;1000;516;512
1.395;1000;517;512
1.396;1000;518;512
1.397;1000;516;514
1.398;1000;514;514
1.399;1000;514;511
1.4;1000;517;511
1.401;1000;515;511
1.402;1000;513;513
1.403;1000;509;511
1.404;1000;506;509
1.405;1000;510;510
1.406;1000;511;509
1.407;1000;513;511
1.408;1000;515;511
1.409;1000;514;508
1.41;1000;512;513
1.411;1000;513;509
1.412;1000;515;511
1.413;1000;519;511
1.414;1000;521;511
1.415;1000;522;510
1.416;1000;522;510
1.417;1000;520;508
1.418;1000;517;513
1.419;1000;516;509
1.42;1000;515;509
1.421;1000;513;509
1.422;1000;512;508
1.423;1000;513;512
1.424;1000;513;508
1.425;1000;514;509
1.426;1000;516;510
1.427;1000;516;511
1.428;1000;518;513
1.429;1000;521;511
1.43;1000;525;509
1.431;1000;526;509
1.432;1000;526;511
1.433;1000;526;511
1.434;1000;528;510
1.435;1000;527;512
1.436;1000;525;509
1.437;1000;524;511
1.438;1000;525;512
1.439;1000;522;511
1.44;1000;522;509
1.441;1000;521;509
1.442;1000;520;508
1.443;1000;520;513
1.444;1000;518;511
1.445;1000;515;508
1.446;1000;512;509
1.447;1000;510;511
1.448;1000;511;510
1.449;1000;512;511
1.45;1000;512;510
1.451;1000;513;508
1.452;1000;510;510
1.453;1000;508;511
1.454;1000;509;508
1.455;1000;509;508
1.456;1000;508;508
1.457;1000;507;510
1.458;1000;505;510
1.459;1000;504;508
1.46;1000;503;507
1.461;1000;502;508
1.462;1000;500;513
1.463;1000;502;508
1.464;1000;504;512
1.465;1000;505;507
1.466;1000;505;507
1.467;1000;505;510
1.468;1000;506;511
1.469;1000;506;508
1.47;1000;507;506
1.471;1000;508;507
1.472;1000;508;509
1.473;1000;509;510
1.474;1000;512;507
1.475;1000;515;508
1.476;1000;516;507
1.477;1000;513;509
1.478;1000;514;508
1.479;1000;512;512
1.48;1000;508;507
1.481;1000;505;507
1.482;1000;505;512
1.483;1000;504;507
1.484;1000;504;510
1.485;1000;509;507
1.486;1000;510;507
1.487;1000;511;509
1.488;1000;513;510
1.489;1000;513;509
1.49;1000;514;507
1.491;1000;515;507
1.492;1000;515;506
1.493;1000;513;511
1.494;1000;514;510
1.495;1000;512;507
1.496;1000;511;508
1.497;1000;512;512
1.498;1000;515;509
1.499;1000;518;510
1.5;1000;516;507
1.501;1000;513;508
1.502;1000;510;510
1.503;1000;509;511
1.504;1000;507;508
1.505;1000;506;507
1.506;1000;505;508
1.507;1000;507;511
1.508;1000;510;510
1.509;1000;512;508
1.51;1000;514;512
1.511;1000;514;509
1.512;1000;515;511
1.513;1000;516;513
1.514;1000;515;510
1.515;1000;515;508
1.516;1000;514;508
1.517;1000;513;510
1.518;1000;513;510
1.519;1000;514;510
1.52;1000;514;509
1.521;1000;516;508
1.522;1000;516;508
1.523;1000;519;513
1.524;1000;520;511
1.525;1000;518;508
1.526;1000;515;510
1.527;1000;512;514
1.528;1000;511;510
1.529;1000;509;511
1.53;1000;507;509
1.531;1000;511;508
1.532;1000;514;510
1.533;1000;512;511
1.534;1000;508;508
1.535;1000;503;508
1.536;1000;498;508
1.537;1000;494;510
1.538;1000;490;511
1.539;1000;486;508
1.54;1000;481;508
1.541;1000;476;509
1.542;1000;473;513
1.543;1000;473;509
1.544;1000;476;513
1.545;1000;480;507
1.546;1000;482;510
1.547;1000;486;510
1.548;1000;494;512
1.549;1000;505;510
1.55;1000;513;507
1.551;1000;522;508
1.552;1000;533;510
1.553;1000;542;510
1.554;1000;552;510
1.555;1000;563;508
1.556;1000;574;508
1.557;1000;586;510
1.558;1000;601;510
1.559;1000;617;510
1.56;1000;633;509
1.561;1000;650;510
1.562;1000;664;508
1.563;1000;677;512
1.564;1000;690;509
1.565;1000;704;508
1.566;1000;717;508
1.567;1000;730;510
1.568;1000;743;511
1.569;1000;755;510
1.57;1000;766;508
1.571;1000;776;508
1.572;1000;784;508
1.573;1000;788;513
1.574;1000;789;510
1.575;1000;784;512
1.576;1000;773;509
1.577;1000;756;507
1.578;1000;734;512
1.579;1000;708;511
1.58;1000;678;508
1.581;1000;643;508
1.582;1000;607;511
1.583;1000;576;512
1.584;1000;551;508
1.585;1000;532;508
1.586;1000;516;509
1.587;1000;505;511
1.588;1000;496;511
1.589;1000;487;509
1.59;1000;481;508
1.591;1000;476;509
1.592;1000;472;513
1.593;1000;467;509
1.594;1000;466;513
1.595;1000;465;508
1.596;1000;465;509
1.597;1000;465;511
1.598;1000;463;512
1.599;1000;459;511
1.6;1000;458;510
1.601;1000;455;509
1.602;1000;451;511
1.603;1000;450;512
1.604;1000;451;510
1.605;1000;452;509
1.606;1000;452;510
1.607;1000;454;514
1.608;1000;455;510
1.609;1000;453;514
1.61;1000;455;509
1.611;1000;457;511
1.612;1000;459;512
1.613;1000;459;513
1.614;1000;460;511
1.615;1000;460;509
1.616;1000;462;509
1.617;1000;463;511
1.618;1000;463;511
1.619;1000;464;511
1.62;1000;464;510
1.621;1000;464;510
1.622;1000;463;512
1.623;1000;462;512
1.624;1000;461;511
1.625;1000;460;511
1.626;1000;462;511
1.627;1000;463;512
1.628;1000;467;512
1.629;1000;470;512
1.63;1000;474;514
1.631;1000;477;510
1.632;1000;479;513
1.633;1000;477;511
1.634;1000;472;516
1.635;1000;471;511
1.636;1000;472;511
1.637;1000;473;511
1.638;1000;477;514
1.639;1000;478;513
1.64;1000;478;511
1.641;1000;477;510
1.642;1000;476;513
1.643;1000;474;514
1.644;1000;476;513
1.645;1000;478;511
1.646;1000;481;510
1.647;1000;481;512
1.648;1000;483;513
1.649;1000;485;511
1.65;1000;486;511
1.651;1000;486;511
1.652;1000;485;511
1.653;1000;482;515
1.654;1000;481;512
1.655;1000;481;515
1.656;1000;484;511
1.657;1000;482;512
1.658;1000;481;513
1.659;1000;483;512
1.66;1000;484;509
1.661;1000;485;510
1.662;1000;484;512
1.663;1000;485;512
1.664;1000;485;512
1.665;1000;486;510
1.666;1000;489;510
1.667;1000;491;512
1.668;1000;492;512
1.669;1000;494;511
1.67;1000;496;511
1.671;1000;496;511
1.672;1000;495;510
1.673;1000;495;514
1.674;1000;495;508
1.675;1000;494;510
1.676;1000;492;509
1.677;1000;490;512
1.678;1000;489;513
1.679;1000;490;511
1.68;1000;492;509
1.681;1000;493;509
1.682;1000;492;511
1.683;1000;491;512
1.684;1000;490;509
1.685;1000;491;510
1.686;1000;492;510
1.687;1000;495;512
1.688;1000;497;511
1.689;1000;499;514
1.69;1000;503;510
1.691;1000;505;510
1.692;1000;504;512
1.693;1000;502;512
1.694;1000;505;512
1.695;1000;508;510
1.696;1000;510;510
1.697;1000;508;512
1.698;1000;510;511
1.699;1000;509;514
1.7;1000;508;510
1.701;1000;507;510
1.702;1000;507;510
1.703;1000;508;513
1.704;1000;504;513
1.705;1000;500;511
1.706;1000;500;510
1.707;1000;504;513
1.708;1000;509;514
1.709;1000;510;512
1.71;1000;512;510
1.711;1000;513;510
1.712;1000;512;512
1.713;1000;514;512
1.714;1000;514;509
1.715;1000;514;510
1.716;1000;514;510
1.717;1000;515;510
1.718;1000;516;514
1.719;1000;518;511
1.72;1000;519;515
1.721;1000;519;510
1.722;1000;515;512
1.723;1000;514;513
1.724;1000;513;511
1.725;1000;516;509
1.726;1000;515;510
1.727;1000;514;512
1.728;1000;513;512
1.729;1000;515;512
1.73;1000;515;510
1.731;1000;516;510
1.732;1000;518;509
1.733;1000;519;514
1.734;1000;521;511
1.735;1000;521;514
1.736;1000;521;509
1.737;1000;522;508
1.738;1000;524;513
1.739;1000;526;511
1.74;1000;526;508
1.741;1000;525;509
1.742;1000;523;511
1.743;1000;521;512
1.744;1000;522;508
1.745;1000;524;508
1.746;1000;526;509
1.747;1000;526;511
1.748;1000;527;511
1.749;1000;527;509
1.75;1000;526;509
1.751;1000;526;510
1.752;1000;530;513
1.753;1000;536;509
1.754;1000;539;513
1.755;1000;541;508
1.756;1000;541;508
1.757;1000;540;511
1.758;1000;540;512
1.759;1000;541;511
1.76;1000;541;508
1.761;1000;538;508
1.762;1000;536;511
1.763;1000;539;510
1.764;1000;540;513
1.765;1000;544;509
1.766;1000;545;510
1.767;1000;545;513
1.768;1000;547;510
1.769;1000;549;512
1.77;1000;551;509
1.771;1000;553;509
1.772;1000;556;512
1.773;1000;559;513
1.774;1000;560;511
1.775;1000;559;510
1.776;1000;557;509
1.777;1000;556;512
1.778;1000;555;512
1.779;1000;553;510
1.78;1000;554;510
1.781;1000;556;510
1.782;1000;556;510
1.783;1000;556;515
1.784;1000;558;512
1.785;1000;560;515
1.786;1000;562;511
1.787;1000;565;513
1.788;1000;568;515
1.789;1000;565;513
1.79;1000;564;512
1.791;1000;564;512
1.792;1000;564;515
1.793;1000;564;515
1.794;1000;566;515
1.795;1000;566;514
1.796;1000;566;515
1.797;1000;565;517
1.798;1000;564;516
1.799;1000;563;519
1.8;1000;563;515
1.801;1000;562;516
1.802;1000;563;519
1.803;1000;564;519
1.804;1000;564;519
1.805;1000;563;517
1.806;1000;562;518
1.807;1000;562;520
1.808;1000;562;522
1.809;1000;560;519
1.81;1000;559;520
1.811;1000;558;520
1.812;1000;559;523
1.813;1000;561;523
1.814;1000;562;526
1.815;1000;560;522
1.816;1000;556;523
1.817;1000;556;528
1.818;1000;554;525
1.819;1000;551;527
1.82;1000;549;524
1.821;1000;546;525
1.822;1000;543;528
1.823;1000;540;530
1.824;1000;539;526
1.825;1000;540;527
1.826;1000;537;528
1.827;1000;532;532
1.828;1000;530;532
1.829;1000;531;530
1.83;1000;532;532
1.831;1000;530;531
1.832;1000;527;531
1.833;1000;527;535
1.834;1000;526;535
1.835;1000;522;534
1.836;1000;516;534
1.837;1000;512;537
1.838;1000;509;539
1.839;1000;508;538
1.84;1000;505;537
1.841;1000;503;537
1.842;1000;500;537
1.843;1000;498;543
1.844;1000;494;542
1.845;1000;493;540
1.846;1000;492;541
1.847;1000;490;545
1.848;1000;486;543
1.849;1000;484;544
1.85;1000;482;543
1.851;1000;482;542
1.852;1000;481;545
1.853;1000;482;547
1.854;1000;483;543
1.855;1000;483;543
1.856;1000;481;545
1.857;1000;478;547
1.858;1000;475;548
1.859;1000;472;547
1.86;1000;468;547
1.861;1000;466;547
1.862;1000;467;551
1.863;1000;465;548
1.864;1000;464;552
1.865;1000;466;548
1.866;1000;467;550
1.867;1000;465;551
1.868;1000;467;552
1.869;1000;468;551
1.87;1000;467;550
1.871;1000;468;550
1.872;1000;469;552
1.873;1000;470;555
1.874;1000;471;550
1.875;1000;469;551
1.876;1000;466;551
1.877;1000;467;554
1.878;1000;465;552
1.879;1000;463;557
1.88;1000;464;552
1.881;1000;462;551
1.882;1000;463;556
1.883;1000;461;552
1.884;1000;458;552
1.885;1000;457;551
1.886;1000;456;551
1.887;1000;460;553
1.888;1000;463;555
1.889;1000;463;551
1.89;1000;463;550
1.891;1000;464;551
1.892;1000;468;553
1.893;1000;468;551
1.894;1000;465;554
1.895;1000;465;549
1.896;1000;466;551
1.897;1000;465;551
1.898;1000;465;552
1.899;1000;463;547
1.9;1000;461;547
1.901;1000;460;547
1.902;1000;461;549
1.903;1000;461;549
1.904;1000;462;547
1.905;1000;463;546
1.906;1000;466;546
1.907;1000;469;548
1.908;1000;468;548
1.909;1000;467;545
1.91;1000;467;545
1.911;1000;468;544
1.912;1000;468;546
1.913;1000;466;545
1.914;1000;467;541
1.915;1000;470;541
1.916;1000;469;540
1.917;1000;468;541
1.918;1000;468;541
1.919;1000;471;539
1.92;1000;469;539
1.921;1000;464;539
1.922;1000;462;541
1.923;1000;462;539
1.924;1000;460;541
1.925;1000;461;536
1.926;1000;463;536
1.927;1000;464;540
1.928;1000;467;536
1.929;1000;467;535
1.93;1000;469;534
1.931;1000;471;533
1.932;1000;472;534
1.933;1000;472;534
1.934;1000;472;530
1.935;1000;472;534
1.936;1000;473;530
1.937;1000;472;529
1.938;1000;472;533
1.939;1000;474;531
1.94;1000;477;528
1.941;1000;477;528
1.942;1000;474;529
1.943;1000;468;531
1.944;1000;465;528
1.945;1000;467;526
1.946;1000;471;524
1.947;1000;472;522
1.948;1000;475;525
1.949;1000;479;525
1.95;1000;477;522
1.951;1000;475;521
1.952;1000;476;523
1.953;1000;476;522
1.954;1000;474;521
1.955;1000;475;520
1.956;1000;478;520
1.957;1000;481;520
1.958;1000;479;519
1.959;1000;477;521
1.96;1000;477;517
1.961;1000;479;516
1.962;1000;477;518
1.963;1000;473;519
1.964;1000;469;517
1.965;1000;469;513
1.966;1000;471;514
1.967;1000;472;515
1.968;1000;475;515
1.969;1000;474;512
1.97;1000;473;512
1.971;1000;478;511
1.972;1000;481;512
1.973;1000;482;511
1.974;1000;481;513
1.975;1000;481;508
1.976;1000;480;508
1.977;1000;480;512
1.978;1000;480;509
1.979;1000;479;509
1.98;1000;477;506
1.981;1000;475;507
1.982;1000;473;508
1.983;1000;473;509
1.984;1000;474;505
1.985;1000;476;504
1.986;1000;477;505
1.987;1000;479;507
1.988;1000;479;506
1.989;1000;481;503
1.99;1000;484;508
1.991;1000;486;504
1.992;1000;484;505
1.993;1000;483;507
1.994;1000;483;504
1.995;1000;481;500
1.996;1000;481;501
1.997;1000;480;503
1.998;1000;479;503
1.999;1000;480;502
2;1000;479;500
2.001;1000;479;499
2.002;1000;480;502
2.003;1000;480;502
2.004;1000;480;501
2.005;1000;480;500
2.006;1000;480;500
2.007;1000;482;502
2.008;1000;483;500
2.009;1000;485;496
2.01;1000;487;497
2.011;1000;487;497
2.012;1000;484;498
2.013;1000;484;498
2.014;1000;484;497
2.015;1000;487;497
2.016;1000;489;497
2.017;1000;488;497
2.018;1000;488;500
2.019;1000;488;499
2.02;1000;487;498
2.021;1000;489;498
2.022;1000;489;497
2.023;1000;491;501
2.024;1000;492;497
2.025;1000;492;496
2.026;1000;492;496
2.027;1000;492;497
2.028;1000;489;498
2.029;1000;484;496
2.03;1000;482;496
2.031;1000;484;496
2.032;1000;491;499
2.033;1000;495;499
2.034;1000;497;496
2.035;1000;499;496
2.036;1000;498;496
2.037;1000;497;498
2.038;1000;496;499
2.039;1000;496;496
2.04;1000;494;496
2.041;1000;493;496
2.042;1000;492;499
2.043;1000;489;497
2.044;1000;487;495
2.045;1000;489;496
2.046;1000;491;496
2.047;1000;490;496
2.048;1000;492;500
2.049;1000;496;497
2.05;1000;496;498
2.051;1000;496;498
2.052;1000;495;500
2.053;1000;495;501
2.054;1000;496;499
2.055;1000;498;500
2.056;1000;498;500
2.057;1000;497;503
2.058;1000;499;502
2.059;1000;501;500
2.06;1000;503;504
2.061;1000;503;501
2.062;1000;503;501
2.063;1000;502;505
2.064;1000;500;504
2.065;1000;500;507
2.066;1000;501;504
2.067;1000;504;504
2.068;1000;504;508
2.069;1000;503;507
2.07;1000;502;509
2.071;1000;501;506
2.072;1000;502;509
2.073;1000;503;511
2.074;1000;504;508
2.075;1000;505;506
2.076;1000;504;507
2.077;1000;503;509
2.078;1000;503;510
2.079;1000;504;510
2.08;1000;505;508
2.081;1000;502;508
2.082;1000;499;511
2.083;1000;498;511
2.084;1000;497;511
2.085;1000;499;511
2.086;1000;503;511
2.087;1000;506;510
2.088;1000;508;516
2.089;1000;509;510
2.09;1000;510;512
2.091;1000;511;512
2.092;1000;510;514
2.093;1000;511;516
2.094;1000;514;515
2.095;1000;514;512
2.096;1000;512;513
2.097;1000;512;515
2.098;1000;514;518
2.099;1000;515;514
2.1;1000;514;514
2.101;1000;513;515
2.102;1000;515;517
2.103;1000;513;517
2.104;1000;509;520
2.105;1000;509;516
2.106;1000;506;517
2.107;1000;508;522
2.108;1000;511;519
2.109;1000;513;519
2.11;1000;513;517
2.111;1000;516;518
2.112;1000;515;520
2.113;1000;516;522
2.114;1000;519;518
2.115;1000;519;518
2.116;1000;517;519
2.117;1000;518;523
2.118;1000;517;521
2.119;1000;515;524
2.12;1000;515;518
2.121;1000;514;522
2.122;1000;514;523
2.123;1000;515;524
2.124;1000;515;521
2.125;1000;515;519
2.126;1000;514;520
2.127;1000;513;522
2.128;1000;513;522
2.129;1000;515;522
2.13;1000;518;521
2.131;1000;519;520
2.132;1000;522;523
2.133;1000;521;524
2.134;1000;519;523
2.135;1000;516;523
2.136;1000;516;523
2.137;1000;515;521
2.138;1000;514;527
2.139;1000;518;524
2.14;1000;519;522
2.141;1000;519;522
2.142;1000;519;524
2.143;1000;518;525
2.144;1000;519;525
2.145;1000;518;522
2.146;1000;516;523
2.147;1000;517;526
2.148;1000;517;525
2.149;1000;518;522
2.15;1000;516;527
2.151;1000;520;523
2.152;1000;520;525
2.153;1000;519;527
2.154;1000;517;525
2.155;1000;518;523
2.156;1000;519;523
2.157;1000;519;525
2.158;1000;519;525
2.159;1000;519;525
2.16;1000;519;523
2.161;1000;520;522
2.162;1000;518;524
2.163;1000;513;524
2.164;1000;513;524
2.165;1000;513;523
2.166;1000;514;522
2.167;1000;517;522
2.168;1000;518;527
2.169;1000;519;523
2.17;1000;519;521
2.171;1000;519;520
2.172;1000;518;523
2.173;1000;518;524
2.174;1000;518;522
2.175;1000;517;520
2.176;1000;519;519
2.177;1000;518;522
2.178;1000;517;521
2.179;1000;519;519
2.18;1000;517;519
2.181;1000;516;519
2.182;1000;515;519
2.183;1000;513;523
2.184;1000;512;519
2.185;1000;511;523
2.186;1000;511;519
2.187;1000;510;517
2.188;1000;511;522
2.189;1000;512;520
2.19;1000;515;516
2.191;1000;516;517
2.192;1000;515;519
2.193;1000;514;520
2.194;1000;515;516
2.195;1000;516;515
2.196;1000;515;516
2.197;1000;514;518
2.198;1000;515;518
2.199;1000;517;516
2.2;1000;515;516
2.201;1000;512;516
2.202;1000;512;520
2.203;1000;510;517
2.204;1000;510;519
2.205;1000;510;515
2.206;1000;510;516
2.207;1000;512;518
2.208;1000;515;519
2.209;1000;515;517
2.21;1000;517;516
2.211;1000;520;517
2.212;1000;520;516
2.213;1000;519;520
2.214;1000;519;517
2.215;1000;515;517
2.216;1000;515;516
2.217;1000;514;515
2.218;1000;513;519
2.219;1000;513;513
2.22;1000;512;516
2.221;1000;509;515
2.222;1000;507;516
2.223;1000;508;518
2.224;1000;510;516
2.225;1000;509;514
2.226;1000;508;514
2.227;1000;508;516
2.228;1000;507;515
2.229;1000;508;519
2.23;1000;510;515
2.231;1000;510;515
2.232;1000;512;514
2.233;1000;519;518
2.234;1000;519;515
2.235;1000;515;513
2.236;1000;515;514
2.237;1000;518;516
2.238;1000;520;517
2.239;1000;520;515
2.24;1000;519;513
2.241;1000;519;513
2.242;1000;518;512
2.243;1000;518;517
2.244;1000;515;515
2.245;1000;515;513
2.246;1000;515;513
2.247;1000;519;515
2.248;1000;519;515
2.249;1000;521;515
2.25;1000;523;513
2.251;1000;523;512
2.252;1000;524;513
2.253;1000;525;515
2.254;1000;526;513
2.255;1000;525;511
2.256;1000;525;511
2.257;1000;525;514
2.258;1000;526;512
2.259;1000;524;516
2.26;1000;522;511
2.261;1000;519;511
2.262;1000;518;511
2.263;1000;519;515
2.264;1000;520;512
2.265;1000;519;510
2.266;1000;518;510
2.267;1000;518;513
2.268;1000;517;513
2.269;1000;512;512
2.27;1000;513;509
2.271;1000;513;510
2.272;1000;512;512
2.273;1000;512;512
2.274;1000;515;509
2.275;1000;514;509
2.276;1000;512;509
2.277;1000;513;510
2.278;1000;516;514
2.279;1000;514;511
2.28;1000;509;514
2.281;1000;505;509
2.282;1000;504;508
2.283;1000;502;513
2.284;1000;502;511
2.285;1000;504;508
2.286;1000;503;509
2.287;1000;500;511
2.288;1000;502;512
2.289;1000;504;508
2.29;1000;500;508
2.291;1000;499;509
2.292;1000;503;511
2.293;1000;505;511
2.294;1000;506;508
2.295;1000;507;508
2.296;1000;508;509
2.297;1000;508;513
2.298;1000;508;509
2.299;1000;507;513
2.3;1000;507;509
2.301;1000;507;509
2.302;1000;508;512
2.303;1000;506;513
2.304;1000;504;511
2.305;1000;505;509
2.306;1000;508;509
2.307;1000;510;512
2.308;1000;508;511
2.309;1000;507;508
2.31;1000;505;510
2.311;1000;503;510
2.312;1000;502;512
2.313;1000;503;514
2.314;1000;504;511
2.315;1000;506;508
2.316;1000;507;509
2.317;1000;507;511
2.318;1000;507;511
2.319;1000;505;511
2.32;1000;504;508
2.321;1000;501;509
2.322;1000;499;511
2.323;1000;499;511
2.324;1000;499;510
2.325;1000;500;510
2.326;1000;504;510
2.327;1000;505;508
2.328;1000;504;513
2.329;1000;504;509
2.33;1000;504;508
2.331;1000;502;507
2.332;1000;503;510
2.333;1000;506;511
2.334;1000;507;510
2.335;1000;506;507
2.336;1000;505;508
2.337;1000;505;510
2.338;1000;506;510
2.339;1000;507;508
2.34;1000;506;508
2.341;1000;506;508
2.342;1000;504;508
2.343;1000;502;512
2.344;1000;504;509
2.345;1000;509;513
2.346;1000;512;508
2.347;1000;513;507
2.348;1000;512;512
2.349;1000;511;510
2.35;1000;509;507
2.351;1000;509;508
2.352;1000;511;510
2.353;1000;513;512
2.354;1000;515;508
2.355;1000;515;508
2.356;1000;513;508
2.357;1000;512;510
2.358;1000;511;511
2.359;1000;509;508
2.36;1000;504;508
2.361;1000;501;509
2.362;1000;494;513
2.363;1000;489;510
2.364;1000;487;513
2.365;1000;483;509
2.366;1000;480;510
2.367;1000;479;511
2.368;1000;480;513
2.369;1000;478;511
2.37;1000;476;510
2.371;1000;480;510
2.372;1000;485;512
2.373;1000;491;511
2.374;1000;495;514
2.375;1000;502;511
2.376;1000;509;511
2.377;1000;518;513
2.378;1000;528;513
2.379;1000;538;512
2.38;1000;548;509
2.381;1000;558;509
2.382;1000;569;512
2.383;1000;584;513
2.384;1000;597;509
2.385;1000;611;510
2.386;1000;626;510
2.387;1000;643;512
2.388;1000;659;511
2.389;1000;670;515
2.39;1000;683;511
2.391;1000;696;510
2.392;1000;710;515
2.393;1000;720;511
2.394;1000;728;512
2.395;1000;738;510
2.396;1000;748;509
2.397;1000;756;512
2.398;1000;761;513
2.399;1000;761;509
2.4;1000;758;510
2.401;1000;752;511
2.402;1000;740;512
2.403;1000;720;512
2.404;1000;695;510
2.405;1000;669;510
2.406;1000;637;511
2.407;1000;601;515
2.408;1000;566;511
2.409;1000;539;515
2.41;1000;519;510
2.411;1000;504;512
2.412;1000;493;513
2.413;1000;483;514
2.414;1000;472;512
2.415;1000;467;510
2.416;1000;463;511
2.417;1000;460;513
2.418;1000;460;513
2.419;1000;462;513
2.42;1000;460;511
2.421;1000;459;511
2.422;1000;459;513
2.423;1000;460;514
2.424;1000;461;513
2.425;1000;465;513
2.426;1000;465;513
2.427;1000;466;511
2.428;1000;465;515
2.429;1000;461;515
2.43;1000;456;512
2.431;1000;455;513
2.432;1000;457;515
2.433;1000;461;517
2.434;1000;462;515
2.435;1000;462;513
2.436;1000;464;514
2.437;1000;464;516
2.438;1000;467;515
2.439;1000;468;518
2.44;1000;468;514
2.441;1000;468;514
2.442;1000;469;516
2.443;1000;470;517
2.444;1000;472;516
2.445;1000;470;513
2.446;1000;467;513
2.447;1000;468;516
2.448;1000;468;517
2.449;1000;468;513
2.45;1000;471;514
2.451;1000;476;514
2.452;1000;479;517
2.453;1000;480;515
2.454;1000;481;518
2.455;1000;483;515
2.456;1000;484;514
2.457;1000;484;519
2.458;1000;483;515
2.459;1000;481;516
2.46;1000;480;513
2.461;1000;480;515
2.462;1000;481;517
2.463;1000;481;516
2.464;1000;480;514
2.465;1000;477;514
2.466;1000;476;514
2.467;1000;478;518
2.468;1000;481;517
2.469;1000;483;514
2.47;1000;484;518
2.471;1000;487;515
2.472;1000;489;517
2.473;1000;488;519
2.474;1000;487;516
2.475;1000;487;514
2.476;1000;490;514
2.477;1000;490;516
2.478;1000;487;516
2.479;1000;488;516
2.48;1000;491;513
2.481;1000;492;514
2.482;1000;492;516
2.483;1000;489;516
2.484;1000;488;515
2.485;1000;487;515
2.486;1000;488;515
2.487;1000;491;513
2.488;1000;492;519
2.489;1000;495;515
2.49;1000;498;513
2.491;1000;499;513
2.492;1000;500;515
2.493;1000;499;516
2.494;1000;495;515
2.495;1000;495;512
2.496;1000;496;513
2.497;1000;497;515
2.498;1000;501;515
2.499;1000;504;513
2.5;1000;500;513
2.501;1000;498;513
2.502;1000;496;513
2.503;1000;497;517
2.504;1000;499;514
2.505;1000;497;517
2.506;1000;496;513
2.507;1000;496;512
2.508;1000;496;517
2.509;1000;497;515
2.51;1000;499;512
2.511;1000;502;512
2.512;1000;504;515
2.513;1000;502;516
2.514;1000;497;512
2.515;1000;497;512
2.516;1000;499;512
2.517;1000;502;514
2.518;1000;501;514
2.519;1000;499;512
2.52;1000;501;512
2.521;1000;504;512
2.522;1000;504;517
2.523;1000;505;513
2.524;1000;505;516
2.525;1000;507;512
2.526;1000;508;513
2.527;1000;509;515
2.528;1000;509;517
2.529;1000;511;514
2.53;1000;511;513
2.531;1000;514;513
2.532;1000;515;515
2.533;1000;515;515
2.534;1000;515;517
2.535;1000;513;513
2.536;1000;513;514
2.537;1000;511;515
2.538;1000;511;516
2.539;1000;512;514
2.54;1000;512;511
2.541;1000;511;512
2.542;1000;512;514
2.543;1000;511;516
2.544;1000;509;511
2.545;1000;508;511
2.546;1000;510;512
2.547;1000;510;514
2.548;1000;511;513
2.549;1000;511;517
2.55;1000;514;511
2.551;1000;517;511
2.552;1000;519;516
2.553;1000;520;512
2.554;1000;519;513
2.555;1000;521;510
2.556;1000;523;510
2.557;1000;522;513
2.558;1000;522;514
2.559;1000;520;510
2.56;1000;522;510
2.561;1000;524;510
2.562;1000;522;512
2.563;1000;521;513
2.564;1000;521;510
2.565;1000;521;510
2.566;1000;523;511
2.567;1000;527;515
2.568;1000;530;511
2.569;1000;529;515
2.57;1000;529;510
2.571;1000;530;510
2.572;1000;531;512
2.573;1000;532;512
2.574;1000;533;513
2.575;1000;533;509
2.576;1000;535;510
2.577;1000;536;512
2.578;1000;536;513
2.579;1000;536;511
2.58;1000;536;511
2.581;1000;537;510
2.582;1000;538;512
2.583;1000;539;511
2.584;1000;539;514
2.585;1000;540;510
2.586;1000;543;510
2.587;1000;546;512
2.588;1000;551;514
2.589;1000;553;512
2.59;1000;552;510
2.591;1000;551;511
2.592;1000;552;512
2.593;1000;555;513
2.594;1000;556;510
2.595;1000;556;510
2.596;1000;557;510
2.597;1000;554;512
2.598;1000;552;512
2.599;1000;552;515
2.6;1000;556;512
2.601;1000;557;511
2.602;1000;560;516
2.603;1000;563;512
2.604;1000;561;514
2.605;1000;561;511
2.606;1000;562;511
2.607;1000;563;513
2.608;1000;563;515
2.609;1000;564;513
2.61;1000;568;511
2.611;1000;569;511
2.612;1000;572;511
2.613;1000;576;516
2.614;1000;575;515
2.615;1000;577;512
2.616;1000;575;513
2.617;1000;574;516
2.618;1000;572;514
2.619;1000;568;511
2.62;1000;568;512
2.621;1000;567;512
2.622;1000;568;514
2.623;1000;568;514
2.624;1000;569;517
2.625;1000;571;513
2.626;1000;569;514
2.627;1000;571;518
2.628;1000;572;516
2.629;1000;572;514
2.63;1000;572;520
2.631;1000;569;516
2.632;1000;570;519
2.633;1000;569;520
2.634;1000;569;519
2.635;1000;568;517
2.636;1000;565;517
2.637;1000;563;519
2.638;1000;563;520
2.639;1000;561;520
2.64;1000;560;519
2.641;1000;557;519
2.642;1000;554;522
2.643;1000;553;522
2.644;1000;549;522
2.645;1000;546;522
2.646;1000;548;523
2.647;1000;549;521
2.648;1000;549;527
2.649;1000;547;524
2.65;1000;547;523
2.651;1000;546;523
2.652;1000;546;526
2.653;1000;543;528
2.654;1000;540;526
2.655;1000;537;525
2.656;1000;535;525
2.657;1000;531;528
2.658;1000;528;529
2.659;1000;527;527
2.66;1000;522;527
2.661;1000;515;529
2.662;1000;512;529
2.663;1000;510;534
2.664;1000;507;529
2.665;1000;502;531
2.666;1000;501;531
2.667;1000;500;532
2.668;1000;499;534
2.669;1000;499;532
2.67;1000;495;532
2.671;1000;493;534
2.672;1000;491;536
2.673;1000;489;536
2.674;1000;487;535
2.675;1000;485;536
2.676;1000;482;536
2.677;1000;484;539
2.678;1000;487;540
2.679;1000;487;537
2.68;1000;484;537
2.681;1000;481;538
2.682;1000;479;541
2.683;1000;475;540
2.684;1000;472;538
2.685;1000;470;539
2.686;1000;471;539
2.687;1000;471;542
2.688;1000;469;543
2.689;1000;467;541
2.69;1000;465;541
2.691;1000;463;542
2.692;1000;464;545
2.693;1000;465;544
2.694;1000;465;549
2.695;1000;464;545
2.696;1000;462;545
2.697;1000;461;550
2.698;1000;460;546
2.699;1000;458;550
2.7;1000;459;546
2.701;1000;457;547
2.702;1000;456;549
2.703;1000;454;549
2.704;1000;455;550
2.705;1000;457;548
2.706;1000;457;549
2.707;1000;457;550
2.708;1000;457;552
2.709;1000;458;551
2.71;1000;462;548
2.711;1000;462;548
2.712;1000;458;551
2.713;1000;454;551
2.714;1000;454;550
2.715;1000;455;548
2.716;1000;455;548
2.717;1000;455;551
2.718;1000;456;553
2.719;1000;459;551
2.72;1000;459;548
2.721;1000;460;548
2.722;1000;458;547
2.723;1000;456;552
2.724;1000;456;551
2.725;1000;460;548
2.726;1000;463;548
2.727;1000;465;551
2.728;1000;465;550
2.729;1000;466;551
2.73;1000;468;547
2.731;1000;470;546
2.732;1000;472;548
2.733;1000;475;550
2.734;1000;474;545
2.735;1000;472;545
2.736;1000;472;545
2.737;1000;470;547
2.738;1000;467;547
2.739;1000;465;544
2.74;1000;465;543
2.741;1000;466;544
2.742;1000;467;547
2.743;1000;467;543
2.744;1000;465;546
2.745;1000;468;540
2.746;1000;470;541
2.747;1000;470;543
2.748;1000;468;543
2.749;1000;467;541
2.75;1000;469;538
2.751;1000;472;538
2.752;1000;473;539
2.753;1000;474;540
2.754;1000;474;536
2.755;1000;475;536
2.756;1000;475;536
2.757;1000;474;537
2.758;1000;473;536
2.759;1000;474;537
2.76;1000;476;534
2.761;1000;476;533
2.762;1000;477;537
2.763;1000;474;534
2.764;1000;474;534
2.765;1000;476;530
2.766;1000;477;530
2.767;1000;475;531
2.768;1000;474;532
2.769;1000;475;531
2.77;1000;478;528
2.771;1000;480;527
2.772;1000;482;527
2.773;1000;482;531
2.774;1000;482;528
2.775;1000;482;525
2.776;1000;482;525
2.777;1000;481;527
2.778;1000;480;525
2.779;1000;479;524
2.78;1000;480;522
2.781;1000;484;522
2.782;1000;483;524
2.783;1000;479;523
2.784;1000;474;520
2.785;1000;472;519
2.786;1000;472;519
2.787;1000;476;522
2.788;1000;479;520
2.789;1000;478;517
2.79;1000;476;520
2.791;1000;477;517
2.792;1000;478;519
2.793;1000;477;520
2.794;1000;479;517
2.795;1000;479;514
2.796;1000;478;513
2.797;1000;479;515
2.798;1000;479;515
2.799;1000;479;514
2.8;1000;479;511
2.801;1000;479;511
2.802;1000;480;512
2.803;1000;479;513
2.804;1000;478;511
2.805;1000;477;510
2.806;1000;476;510
2.807;1000;475;508
2.808;1000;477;512
2.809;1000;480;509
2.81;1000;481;507
2.811;1000;481;505
2.812;1000;484;508
2.813;1000;483;508
2.814;1000;483;507
2.815;1000;480;504
2.816;1000;481;504
2.817;1000;481;506
2.818;1000;480;505
2.819;1000;476;503
2.82;1000;473;502
2.821;1000;474;503
2.822;1000;476;502
2.823;1000;475;507
2.824;1000;473;503
2.825;1000;473;506
2.826;1000;473;501
2.827;1000;475;499
2.828;1000;478;504
2.829;1000;480;502
2.83;1000;481;499
2.831;1000;483;500
2.832;1000;484;502
2.833;1000;483;503
2.834;1000;483;499
2.835;1000;484;499
2.836;1000;484;499
2.837;1000;485;501
2.838;1000;484;500
2.839;1000;483;498
2.84;1000;483;498
2.841;1000;481;499
2.842;1000;481;503
2.843;1000;480;499
2.844;1000;480;502
2.845;1000;479;498
2.846;1000;478;498
2.847;1000;481;501
2.848;1000;482;502
2.849;1000;481;499
2.85;1000;483;499
2.851;1000;487;499
2.852;1000;487;501
2.853;1000;486;499
2.854;1000;488;503
2.855;1000;489;499
2.856;1000;490;499
2.857;1000;491;501
2.858;1000;489;503
2.859;1000;488;500
2.86;1000;487;498
2.861;1000;487;498
2.862;1000;485;500
2.863;1000;484;502
2.864;1000;485;498
2.865;1000;486;498
2.866;1000;487;498
2.867;1000;489;500
2.868;1000;489;500
2.869;1000;488;504
2.87;1000;489;499
2.871;1000;489;499
2.872;1000;492;504
2.873;1000;494;500
2.874;1000;494;502
2.875;1000;496;499
2.876;1000;495;498
2.877;1000;494;501
2.878;1000;493;503
2.879;1000;494;499
2.88;1000;496;499
2.881;1000;497;500
2.882;1000;494;502
2.883;1000;489;502
2.884;1000;490;500
2.885;1000;493;500
2.886;1000;494;500
2.887;1000;495;500
2.888;1000;496;505
2.889;1000;495;502
2.89;1000;495;504
2.891;1000;497;502
2.892;1000;496;501
2.893;1000;496;506
2.894;1000;496;505
2.895;1000;495;502
2.896;1000;495;503
2.897;1000;496;505
2.898;1000;497;507
2.899;1000;498;503
2.9;1000;497;504
2.901;1000;496;504
2.902;1000;496;508
2.903;1000;493;507
2.904;1000;495;507
2.905;1000;497;510
2.906;1000;499;507
2.907;1000;499;508
2.908;1000;501;510
2.909;1000;502;509
2.91;1000;503;507
2.911;1000;505;507
2.912;1000;507;510
2.913;1000;507;510
2.914;1000;505;509
2.915;1000;505;509
2.916;1000;507;510
2.917;1000;506;512
2.918;1000;505;511
2.919;1000;506;514
2.92;1000;506;510
2.921;1000;503;511
2.922;1000;503;513
2.923;1000;505;515
2.924;1000;504;513
2.925;1000;503;511
2.926;1000;505;512
2.927;1000;508;514
2.928;1000;510;516
2.929;1000;510;513
2.93;1000;510;512
2.931;1000;511;513
2.932;1000;512;516
2.933;1000;513;516
2.934;1000;514;519
2.935;1000;518;515
2.936;1000;519;515
2.937;1000;519;520
2.938;1000;519;517
2.939;1000;518;518
2.94;1000;516;515
2.941;1000;514;516
2.942;1000;512;518
2.943;1000;512;520
2.944;1000;512;517
2.945;1000;511;516
2.946;1000;509;518
2.947;1000;511;521
2.948;1000;512;520
2.949;1000;512;517
2.95;1000;511;521
2.951;1000;509;519
2.952;1000;512;521
2.953;1000;518;523
2.954;1000;520;521
2.955;1000;517;519
2.956;1000;515;519
2.957;1000;518;521
2.958;1000;519;521
2.959;1000;516;521
2.96;1000;515;519
2.961;1000;516;520
2.962;1000;517;521
2.963;1000;514;522
2.964;1000;513;522
2.965;1000;514;521
2.966;1000;515;522
2.967;1000;513;520
2.968;1000;514;525
2.969;1000;516;523
2.97;1000;519;520
2.971;1000;520;519
2.972;1000;521;522
2.973;1000;521;524
2.974;1000;520;522
2.975;1000;518;520
2.976;1000;516;520
2.977;1000;515;523
2.978;1000;512;523
2.979;1000;511;520
2.98;1000;511;520
2.981;1000;512;520
2.982;1000;513;521
2.983;1000;515;525
2.984;1000;515;522
2.985;1000;514;525
2.986;1000;514;521
2.987;1000;516;523
2.988;1000;517;523
2.989;1000;517;520
2.99;1000;517;523
2.991;1000;518;521
2.992;1000;518;523
2.993;1000;518;525
2.994;1000;518;523
2.995;1000;520;522
2.996;1000;520;522
2.997;1000;518;524
2.998;1000;516;525
2.999;1000;514;524
3;1000;512;521
3.001;1000;511;521
3.002;1000;512;526
3.003;1000;514;522
3.004;1000;514;523
3.005;1000;515;520
3.006;1000;514;521
3.007;1000;515;523
3.008;1000;515;525
3.009;1000;516;520
3.01;1000;516;520
3.011;1000;516;521
3.012;1000;519;524
3.013;1000;519;522
3.014;1000;519;520
3.015;1000;516;521
3.016;1000;517;521
3.017;1000;517;523
3.018;1000;516;524
3.019;1000;514;523
3.02;1000;514;520
3.021;1000;515;520
3.022;1000;512;522
3.023;1000;511;522
3.024;1000;511;522
3.025;1000;511;519
3.026;1000;512;519
3.027;1000;515;521
3.028;1000;516;521
3.029;1000;516;520
3.03;1000;518;520
3.031;1000;519;519
3.032;1000;520;518
3.033;1000;519;523
3.034;1000;519;519
3.035;1000;518;518
3.036;1000;518;518
3.037;1000;519;520
3.038;1000;519;521
3.039;1000;518;519
3.04;1000;516;516
3.041;1000;513;517
3.042;1000;511;516
3.043;1000;512;521
3.044;1000;512;519
3.045;1000;513;516
3.046;1000;515;516
3.047;1000;514;519
3.048;1000;515;518
3.049;1000;519;519
3.05;1000;521;516
3.051;1000;522;514
3.052;1000;523;517
3.053;1000;523;518
3.054;1000;523;514
3.055;1000;522;514
3.056;1000;521;514
3.057;1000;522;516
3.058;1000;520;516
3.059;1000;518;514
3.06;1000;518;513
3.061;1000;516;513
3.062;1000;517;518
3.063;1000;519;514
3.064;1000;518;517
3.065;1000;519;511
3.066;1000;520;512
3.067;1000;518;514
3.068;1000;516;515
3.069;1000;515;513
3.07;1000;515;511
3.071;1000;515;511
3.072;1000;513;513
3.073;1000;510;515
3.074;1000;508;510
3.075;1000;507;510
3.076;1000;505;511
3.077;1000;506;513
3.078;1000;506;512
3.079;1000;506;512
3.08;1000;505;511
3.081;1000;504;510
3.082;1000;502;515
3.083;1000;500;510
3.084;1000;499;512
3.085;1000;499;508
3.086;1000;500;509
3.087;1000;500;511
3.088;1000;500;512
3.089;1000;501;508
3.09;1000;502;508
3.091;1000;503;507
3.092;1000;504;507
3.093;1000;505;512
3.094;1000;505;511
3.095;1000;505;507
3.096;1000;505;508
3.097;1000;505;512
3.098;1000;508;508
3.099;1000;510;509
3.1;1000;508;506
3.101;1000;505;507
3.102;1000;504;509
3.103;1000;504;510
3.104;1000;503;505
3.105;1000;500;505
3.106;1000;502;506
3.107;1000;503;509
3.108;1000;503;508
3.109;1000;504;505
3.11;1000;507;508
3.111;1000;511;507
3.112;1000;512;509
3.113;1000;513;511
3.114;1000;511;508
3.115;1000;509;505
3.116;1000;506;505
3.117;1000;504;507
3.118;1000;503;507
3.119;1000;500;507
3.12;1000;501;504
3.121;1000;501;504
3.122;1000;500;506
3.123;1000;500;506
3.124;1000;501;504
3.125;1000;502;504
3.126;1000;505;504
3.127;1000;508;503
3.128;1000;511;508
3.129;1000;507;504
3.13;1000;503;505
3.131;1000;501;504
3.132;1000;502;505
3.133;1000;504;507
3.134;1000;506;506
3.135;1000;507;502
3.136;1000;505;503
3.137;1000;504;506
3.138;1000;504;505
3.139;1000;505;505
3.14;1000;504;504
3.141;1000;503;504
3.142;1000;503;504
3.143;1000;503;508
3.144;1000;505;503
3.145;1000;507;505
3.146;1000;506;505
3.147;1000;505;506
3.148;1000;507;508
3.149;1000;509;507
3.15;1000;511;504
3.151;1000;512;504
3.152;1000;510;507
3.153;1000;507;508
3.154;1000;506;504
3.155;1000;506;504
3.156;1000;505;505
3.157;1000;502;507
3.158;1000;496;506
3.159;1000;493;510
3.16;1000;490;505
3.161;1000;483;505
3.162;1000;475;510
3.163;1000;473;506
3.164;1000;474;508
3.165;1000;474;504
3.166;1000;476;505
3.167;1000;476;507
3.168;1000;477;509
3.169;1000;482;505
3.17;1000;489;505
3.171;1000;496;505
3.172;1000;501;509
3.173;1000;510;508
3.174;1000;520;505
3.175;1000;532;507
3.176;1000;545;508
3.177;1000;555;510
3.178;1000;567;512
3.179;1000;579;510
3.18;1000;591;507
3.181;1000;604;508
3.182;1000;619;510
3.183;1000;636;510
3.184;1000;652;511
3.185;1000;665;507
3.186;1000;679;508
3.187;1000;696;510
3.188;1000;708;511
3.189;1000;719;509
3.19;1000;731;510
3.191;1000;745;510
3.192;1000;758;508
3.193;1000;768;513
3.194;1000;776;510
3.195;1000;779;508
3.196;1000;777;509
3.197;1000;772;511
3.198;1000;766;511
3.199;1000;754;511
3.2;1000;734;508
3.201;1000;709;509
3.202;1000;680;508
3.203;1000;649;513
3.204;1000;619;512
3.205;1000;589;509
3.206;1000;561;510
3.207;1000;540;513
3.208;1000;520;512
3.209;1000;505;513
3.21;1000;496;512
3.211;1000;487;510
3.212;1000;480;513
3.213;1000;472;514
3.214;1000;468;511
3.215;1000;467;510
3.216;1000;464;511
3.217;1000;465;513
3.218;1000;463;513
3.219;1000;460;510
3.22;1000;460;511
3.221;1000;460;512
3.222;1000;458;515
3.223;1000;457;513
3.224;1000;457;515
3.225;1000;456;511
3.226;1000;455;511
3.227;1000;456;511
3.228;1000;457;516
3.229;1000;457;514
3.23;1000;456;511
3.231;1000;456;512
3.232;1000;455;513
3.233;1000;452;514
3.234;1000;455;512
3.235;1000;458;511
3.236;1000;459;512
3.237;1000;461;514
3.238;1000;461;514
3.239;1000;461;512
3.24;1000;462;511
3.241;1000;462;512
3.242;1000;461;515
3.243;1000;460;512
3.244;1000;461;510
3.245;1000;463;510
3.246;1000;463;511
3.247;1000;464;514
3.248;1000;464;513
3.249;1000;467;515
3.25;1000;470;511
3.251;1000;473;513
3.252;1000;475;516
3.253;1000;474;514
3.254;1000;475;517
3.255;1000;474;512
3.256;1000;476;514
3.257;1000;476;516
3.258;1000;474;516
3.259;1000;475;515
3.26;1000;475;512
3.261;1000;475;512
3.262;1000;474;514
3.263;1000;472;517
3.264;1000;470;513
3.265;1000;472;513
3.266;1000;475;514
3.267;1000;477;516
3.268;1000;479;515
3.269;1000;480;519
3.27;1000;483;514
3.271;1000;483;514
3.272;1000;482;518
3.273;1000;482;515
3.274;1000;483;516
3.275;1000;483;512
3.276;1000;484;513
3.277;1000;487;515
3.278;1000;485;517
3.279;1000;484;515
3.28;1000;487;512
3.281;1000;486;513
3.282;1000;484;515
3.283;1000;483;515
3.284;1000;480;512
3.285;1000;480;512
3.286;1000;483;513
3.287;1000;486;512
3.288;1000;489;517
3.289;1000;492;513
3.29;1000;492;514
3.291;1000;496;513
3.292;1000;496;515
3.293;1000;496;517
3.294;1000;493;515
3.295;1000;491;513
3.296;1000;490;513
3.297;1000;489;516
3.298;1000;489;515
3.299;1000;488;514
3.3;1000;490;513
3.301;1000;490;514
3.302;1000;489;517
3.303;1000;489;515
3.304;1000;490;513
3.305;1000;491;512
3.306;1000;494;513
3.307;1000;495;513
3.308;1000;494;514
3.309;1000;492;512
3.31;1000;494;511
3.311;1000;496;513
3.312;1000;498;514
3.313;1000;502;514
3.314;1000;502;511
3.315;1000;501;510
3.316;1000;500;511
3.317;1000;500;513
3.318;1000;499;513
3.319;1000;498;511
3.32;1000;498;510
3.321;1000;499;511
3.322;1000;499;513
3.323;1000;500;511
3.324;1000;501;509
3.325;1000;503;508
3.326;1000;504;509
3.327;1000;502;512
3.328;1000;501;512
3.329;1000;505;510
3.33;1000;508;509
3.331;1000;509;510
3.332;1000;508;510
3.333;1000;507;513
3.334;1000;505;512
3.335;1000;505;511
3.336;1000;506;511
3.337;1000;505;510
3.338;1000;505;515
3.339;1000;505;511
3.34;1000;503;511
3.341;1000;504;511
3.342;1000;508;511
3.343;1000;510;514
3.344;1000;511;511
3.345;1000;510;512
3.346;1000;511;513
3.347;1000;512;515
3.348;1000;515;516
3.349;1000;517;515
3.35;1000;518;512
3.351;1000;519;512
3.352;1000;519;515
3.353;1000;521;514
3.354;1000;524;514
3.355;1000;523;513
3.356;1000;525;513
3.357;1000;525;515
3.358;1000;526;518
3.359;1000;526;516
3.36;1000;524;513
3.361;1000;521;514
3.362;1000;519;513
3.363;1000;521;518
3.364;1000;523;517
3.365;1000;524;513
3.366;1000;526;514
3.367;1000;528;516
3.368;1000;530;515
3.369;1000;531;516
3.37;1000;533;513
3.371;1000;537;513
3.372;1000;538;515
3.373;1000;537;517
3.374;1000;539;513
3.375;1000;541;513
3.376;1000;540;513
3.377;1000;538;515
3.378;1000;536;515
3.379;1000;537;513
3.38;1000;538;512
3.381;1000;539;513
3.382;1000;540;517
3.383;1000;539;513
3.384;1000;538;516
3.385;1000;537;511
3.386;1000;540;513
3.387;1000;542;514
3.388;1000;542;515
3.389;1000;545;514
3.39;1000;548;510
3.391;1000;551;511
3.392;1000;555;513
3.393;1000;555;515
3.394;1000;554;511
3.395;1000;554;511
3.396;1000;553;512
3.397;1000;552;514
3.398;1000;553;513
3.399;1000;553;514
3.4;1000;554;512
3.401;1000;555;513
3.402;1000;554;515
3.403;1000;555;512
3.404;1000;555;515
3.405;1000;558;511
3.406;1000;557;513
3.407;1000;562;515
3.408;1000;568;516
3.409;1000;570;515
3.41;1000;567;512
3.411;1000;566;513
3.412;1000;565;516
3.413;1000;564;515
3.414;1000;564;516
3.415;1000;569;513
3.416;1000;572;514
3.417;1000;572;514
3.418;1000;575;518
3.419;1000;575;516
3.42;1000;569;513
3.421;1000;566;515
3.422;1000;564;517
3.423;1000;561;519
3.424;1000;562;518
3.425;1000;564;515
3.426;1000;569;516
3.427;1000;572;516
3.428;1000;572;521
3.429;1000;571;520
3.43;1000;567;517
3.431;1000;563;518
3.432;1000;562;520
3.433;1000;562;520
3.434;1000;561;524
3.435;1000;560;519
3.436;1000;556;520
3.437;1000;554;522
3.438;1000;556;523
3.439;1000;557;523
3.44;1000;557;521
3.441;1000;554;522
3.442;1000;550;524
3.443;1000;547;524
3.444;1000;543;528
3.445;1000;541;524
3.446;1000;538;526
3.447;1000;538;530
3.448;1000;537;527
3.449;1000;533;526
3.45;1000;529;528
3.451;1000;531;527
3.452;1000;531;529
3.453;1000;530;532
3.454;1000;528;531
3.455;1000;526;528
3.456;1000;525;530
3.457;1000;522;532
3.458;1000;519;532
3.459;1000;516;532
3.46;1000;512;531
3.461;1000;508;532
3.462;1000;505;535
3.463;1000;503;535
3.464;1000;502;538
3.465;1000;499;535
3.466;1000;497;536
3.467;1000;496;538
3.468;1000;496;541
3.469;1000;494;540
3.47;1000;492;536
3.471;1000;490;538
3.472;1000;487;540
3.473;1000;483;543
3.474;1000;482;539
3.475;1000;481;539
3.476;1000;480;540
3.477;1000;479;542
3.478;1000;477;542
3.479;1000;474;546
3.48;1000;473;542
3.481;1000;472;542
3.482;1000;470;547
3.483;1000;468;543
3.484;1000;466;545
3.485;1000;463;542
3.486;1000;464;543
3.487;1000;466;546
3.488;1000;464;548
3.489;1000;462;544
3.49;1000;462;544
3.491;1000;465;545
3.492;1000;467;548
3.493;1000;469;547
3.494;1000;468;551
3.495;1000;465;546
3.496;1000;464;548
3.497;1000;464;549
3.498;1000;464;551
3.499;1000;464;550
3.5;1000;464;547
3.501;1000;463;547
3.502;1000;462;550
3.503;1000;460;550
3.504;1000;459;551
3.505;1000;458;547
3.506;1000;460;549
3.507;1000;461;551
3.508;1000;460;551
3.509;1000;460;551
3.51;1000;463;550
3.511;1000;464;551
3.512;1000;464;549
3.513;1000;464;554
3.514;1000;464;551
3.515;1000;464;549
3.516;1000;464;550
3.517;1000;460;551
3.518;1000;462;553
3.519;1000;462;551
3.52;1000;459;548
3.521;1000;461;549
3.522;1000;463;548
3.523;1000;464;552
3.524;1000;466;551
3.525;1000;467;548
3.526;1000;466;548
3.527;1000;464;551
3.528;1000;466;550
3.529;1000;468;551
3.53;1000;468;548
3.531;1000;467;547
3.532;1000;469;549
3.533;1000;469;550
3.534;1000;469;545
3.535;1000;467;545
3.536;1000;466;545
3.537;1000;465;547
3.538;1000;465;547
3.539;1000;463;544
3.54;1000;461;544
3.541;1000;460;544
3.542;1000;460;548
3.543;1000;460;543
3.544;1000;460;546
3.545;1000;462;540
3.546;1000;464;541
3.547;1000;467;542
3.548;1000;469;543
3.549;1000;469;541
3.55;1000;472;537
3.551;1000;475;538
3.552;1000;475;539
3.553;1000;476;541
3.554;1000;477;536
3.555;1000;476;536
3.556;1000;473;536
3.557;1000;471;537
3.558;1000;469;536
3.559;1000;470;536
3.56;1000;473;534
3.561;1000;471;533
3.562;1000;471;537
3.563;1000;472;532
3.564;1000;473;535
3.565;1000;473;530
3.566;1000;472;530
3.567;1000;472;532
3.568;1000;474;532
3.569;1000;476;530
3.57;1000;478;527
3.571;1000;480;527
3.572;1000;482;526
3.573;1000;482;530
3.574;1000;479;528
3.575;1000;476;525
3.576;1000;476;525
3.577;1000;476;527
3.578;1000;477;525
3.579;1000;476;525
3.58;1000;475;522
3.581;1000;474;522
3.582;1000;472;523
3.583;1000;471;525
3.584;1000;469;520
3.585;1000;470;519
3.586;1000;470;519
3.587;1000;472;522
3.588;1000;475;519
3.589;1000;477;516
3.59;1000;477;519
3.591;1000;479;518
3.592;1000;479;519
3.593;1000;479;520
3.594;1000;478;518
3.595;1000;477;514
3.596;1000;475;514
3.597;1000;474;515
3.598;1000;474;515
3.599;1000;472;515
3.6;1000;473;512
3.601;1000;475;511
3.602;1000;474;513
3.603;1000;475;512
3.604;1000;476;512
3.605;1000;476;511
3.606;1000;477;511
3.607;1000;480;509
3.608;1000;482;513
3.609;1000;484;509
3.61;1000;484;507
3.611;1000;483;507
3.612;1000;485;508
3.613;1000;487;508
3.614;1000;485;505
3.615;1000;483;504
3.616;1000;483;505
3.617;1000;483;507
3.618;1000;483;506
3.619;1000;481;505
3.62;1000;478;504
3.621;1000;478;504
3.622;1000;477;504
3.623;1000;477;507
3.624;1000;476;501
3.625;1000;477;503
3.626;1000;478;502
3.627;1000;479;504
3.628;1000;481;505
3.629;1000;480;504
3.63;1000;479;500
3.631;1000;481;501
3.632;1000;482;502
3.633;1000;486;505
3.634;1000;487;500
3.635;1000;487;500
3.636;1000;486;500
3.637;1000;486;502
3.638;1000;487;501
3.639;1000;486;505
3.64;1000;486;500
3.641;1000;484;499
3.642;1000;483;504
3.643;1000;482;500
3.644;1000;481;501
3.645;1000;483;499
3.646;1000;484;499
3.647;1000;487;502
3.648;1000;487;503
3.649;1000;487;499
3.65;1000;488;499
3.651;1000;489;499
3.652;1000;491;502
3.653;1000;491;501
3.654;1000;491;498
3.655;1000;490;499
3.656;1000;490;500
3.657;1000;487;502
3.658;1000;487;504
3.659;1000;487;502
3.66;1000;488;499
3.661;1000;487;500
3.662;1000;489;502
3.663;1000;491;502
3.664;1000;492;502
3.665;1000;492;500
3.666;1000;492;501
3.667;1000;495;502
3.668;1000;495;503
3.669;1000;496;502
3.67;1000;496;501
3.671;1000;496;502
3.672;1000;495;501
3.673;1000;495;506
3.674;1000;497;502
3.675;1000;496;500
3.676;1000;497;501
3.677;1000;496;504
3.678;1000;495;505
3.679;1000;496;504
3.68;1000;497;502
3.681;1000;496;503
3.682;1000;495;502
3.683;1000;495;507
3.684;1000;495;506
3.685;1000;497;503
3.686;1000;496;503
3.687;1000;494;505
3.688;1000;496;505
3.689;1000;498;507
3.69;1000;501;505
3.691;1000;501;504
3.692;1000;501;506
3.693;1000;501;508
3.694;1000;501;504
3.695;1000;503;504
3.696;1000;503;505
3.697;1000;504;507
3.698;1000;507;508
3.699;1000;508;505
3.7;1000;507;506
3.701;1000;506;507
3.702;1000;503;511
3.703;1000;500;507
3.704;1000;500;511
3.705;1000;502;506
3.706;1000;501;507
3.707;1000;503;509
3.708;1000;504;511
3.709;1000;506;510
3.71;1000;507;507
3.711;1000;505;508
3.712;1000;507;510
3.713;1000;510;512
3.714;1000;511;508
3.715;1000;510;508
3.716;1000;509;510
3.717;1000;510;512
3.718;1000;506;511
3.719;1000;503;512
3.72;1000;504;511
3.721;1000;505;511
3.722;1000;505;513
3.723;1000;503;511
3.724;1000;502;514
3.725;1000;506;510
3.726;1000;507;512
3.727;1000;507;514
3.728;1000;507;516
3.729;1000;507;515
3.73;1000;508;512
3.731;1000;511;512
3.732;1000;511;515
3.733;1000;510;515
3.734;1000;508;516
3.735;1000;507;514
3.736;1000;508;515
3.737;1000;508;514
3.738;1000;510;519
3.739;1000;507;517
3.74;1000;508;515
3.741;1000;509;516
3.742;1000;511;518
3.743;1000;511;520
3.744;1000;511;516
3.745;1000;513;516
3.746;1000;517;516
3.747;1000;519;520
3.748;1000;519;519
3.749;1000;519;517
3.75;1000;519;519
3.751;1000;519;519
3.752;1000;521;521
3.753;1000;521;523
3.754;1000;519;521
3.755;1000;518;519
3.756;1000;517;519
3.757;1000;516;521
3.758;1000;515;521
3.759;1000;513;521
3.76;1000;511;519
3.761;1000;510;519
3.762;1000;509;521
3.763;1000;510;522
3.764;1000;513;521
3.765;1000;513;521
3.766;1000;514;522
3.767;1000;516;519
3.768;1000;516;525
3.769;1000;517;523
3.77;1000;518;519
3.771;1000;519;519
3.772;1000;518;522
3.773;1000;518;524
3.774;1000;518;523
3.775;1000;519;520
3.776;1000;518;521
3.777;1000;515;523
3.778;1000;516;522
3.779;1000;515;521
3.78;1000;514;521
3.781;1000;513;521
3.782;1000;511;521
3.783;1000;510;525
3.784;1000;511;522
3.785;1000;510;527
3.786;1000;511;522
3.787;1000;512;521
3.788;1000;519;526
3.789;1000;522;524
3.79;1000;523;521
3.791;1000;523;522
3.792;1000;522;524
3.793;1000;523;525
3.794;1000;524;521
3.795;1000;523;522
3.796;1000;519;522
3.797;1000;517;524
3.798;1000;516;524
3.799;1000;514;522
3.8;1000;513;522
3.801;1000;513;522
3.802;1000;512;527
3.803;1000;512;523
3.804;1000;511;526
3.805;1000;511;522
3.806;1000;511;523
3.807;1000;512;525
3.808;1000;513;527
3.809;1000;514;523
3.81;1000;516;523
3.811;1000;517;524
3.812;1000;519;525
3.813;1000;519;524
3.814;1000;517;527
3.815;1000;516;523
3.816;1000;516;524
3.817;1000;516;525
3.818;1000;515;526
3.819;1000;515;524
3.82;1000;516;521
3.821;1000;513;522
3.822;1000;511;523
3.823;1000;511;525
3.824;1000;512;521
3.825;1000;513;520
3.826;1000;512;521
3.827;1000;513;523
3.828;1000;512;523
3.829;1000;511;521
3.83;1000;511;520
3.831;1000;512;521
3.832;1000;514;524
3.833;1000;517;521
3.834;1000;519;524
3.835;1000;519;519
3.836;1000;519;519
3.837;1000;514;520
3.838;1000;512;523
3.839;1000;511;521
3.84;1000;510;518
3.841;1000;509;519
3.842;1000;508;520
3.843;1000;508;519
3.844;1000;509;523
3.845;1000;510;519
3.846;1000;511;518
3.847;1000;514;522
3.848;1000;516;518
3.849;1000;519;520
3.85;1000;522;516
3.851;1000;523;517
3.852;1000;523;519
3.853;1000;522;520
3.854;1000;522;518
3.855;1000;520;515
3.856;1000;519;516
3.857;1000;519;517
3.858;1000;520;517
3.859;1000;522;515
3.86;1000;523;515
3.861;1000;524;515
3.862;1000;521;515
3.863;1000;520;519
3.864;1000;519;515
3.865;1000;518;519
3.866;1000;520;515
3.867;1000;525;515
3.868;1000;524;518
3.869;1000;520;515
3.87;1000;519;513
3.871;1000;520;514
3.872;1000;523;515
3.873;1000;522;515
3.874;1000;519;514
3.875;1000;519;513
3.876;1000;520;514
3.877;1000;520;515
3.878;1000;519;514
3.879;1000;519;516
3.88;1000;516;513
3.881;1000;513;513
3.882;1000;511;514
3.883;1000;509;515
3.884;1000;506;513
3.885;1000;501;511
3.886;1000;501;511
3.887;1000;501;513
3.888;1000;500;515
3.889;1000;499;511
3.89;1000;503;510
3.891;1000;504;511
3.892;1000;503;513
3.893;1000;504;512
3.894;1000;505;515
3.895;1000;506;510
3.896;1000;506;510
3.897;1000;508;515
3.898;1000;507;510
3.899;1000;506;512
3.9;1000;506;509
3.901;1000;506;510
3.902;1000;504;511
3.903;1000;504;513
3.904;1000;504;509
3.905;1000;503;508
3.906;1000;503;509
3.907;1000;503;511
3.908;1000;503;510
3.909;1000;503;508
3.91;1000;504;509
3.911;1000;507;510
3.912;1000;508;511
3.913;1000;507;512
3.914;1000;507;510
3.915;1000;511;508
3.916;1000;511;508
3.917;1000;510;509
3.918;1000;507;509
3.919;1000;505;510
3.92;1000;505;507
3.921;1000;504;507
3.922;1000;503;509
3.923;1000;503;509
3.924;1000;505;509
3.925;1000;506;508
3.926;1000;506;508
3.927;1000;504;506
3.928;1000;504;511
3.929;1000;505;505
3.93;1000;507;505
3.931;1000;509;506
3.932;1000;507;506
3.933;1000;507;508
3.934;1000;505;507
3.935;1000;506;504
3.936;1000;504;505
3.937;1000;503;507
3.938;1000;504;506
3.939;1000;506;506
3.94;1000;505;506
3.941;1000;503;506
3.942;1000;500;505
3.943;1000;500;508
3.944;1000;503;504
3.945;1000;505;504
3.946;1000;507;505
3.947;1000;506;505
3.948;1000;503;506
3.949;1000;503;504
3.95;1000;508;504
3.951;1000;512;505
3.952;1000;512;507
3.953;1000;510;507
3.954;1000;509;505
3.955;1000;508;505
3.956;1000;507;505
3.957;1000;505;507
3.958;1000;504;507
3.959;1000;503;504
3.96;1000;501;504
3.961;1000;500;505
3.962;1000;499;507
3.963;1000;495;505
3.964;1000;492;503
3.965;1000;492;504
3.966;1000;492;504
3.967;1000;490;506
3.968;1000;485;507
3.969;1000;481;504
3.97;1000;479;505
3.971;1000;479;506
3.972;1000;478;505
3.973;1000;477;509
3.974;1000;480;507
3.975;1000;482;507
3.976;1000;483;507
3.977;1000;483;506
3.978;1000;486;511
3.979;1000;493;504
3.98;1000;497;507
3.981;1000;507;506
3.982;1000;519;508
3.983;1000;530;509
3.984;1000;543;508
3.985;1000;555;506
3.986;1000;568;507
3.987;1000;581;508
3.988;1000;598;508
3.989;1000;616;511
3.99;1000;635;507
3.991;1000;652;508
3.992;1000;667;507
3.993;1000;680;512
3.994;1000;694;509
3.995;1000;708;507
3.996;1000;719;508
3.997;1000;733;510
3.998;1000;746;511
3.999;1000;756;510
4;1000;765;508
4.001;1000;774;508
4.002;1000;780;507
4.003;1000;782;513
4.004;1000;782;511
4.005;1000;779;509
4.006;1000;769;509
4.007;1000;756;511
4.008;1000;735;511
4.009;1000;707;512
4.01;1000;679;510
4.011;1000;649;509
4.012;1000;617;511
4.013;1000;587;513
4.014;1000;560;509
4.015;1000;538;509
4.016;1000;518;509
4.017;1000;501;511
4.018;1000;489;512
4.019;1000;480;510
4.02;1000;474;510
4.021;1000;468;510
4.022;1000;462;513
4.023;1000;456;511
4.024;1000;454;514
4.025;1000;453;509
4.026;1000;451;510
4.027;1000;448;512
4.028;1000;449;514
4.029;1000;454;512
4.03;1000;454;509
4.031;1000;455;510
4.032;1000;457;512
4.033;1000;456;512
4.034;1000;455;511
4.035;1000;455;511
4.036;1000;455;512
4.037;1000;454;513
4.038;1000;454;512
4.039;1000;454;515
4.04;1000;455;512
4.041;1000;455;513
4.042;1000;455;514
4.043;1000;454;513
4.044;1000;455;515
4.045;1000;456;511
4.046;1000;458;512
4.047;1000;460;513
4.048;1000;462;516
4.049;1000;463;514
4.05;1000;465;511
4.051;1000;466;512
4.052;1000;466;511
4.053;1000;467;516
4.054;1000;466;515
4.055;1000;466;512
4.056;1000;466;512
4.057;1000;467;518
4.058;1000;465;513
4.059;1000;464;515
4.06;1000;464;512
4.061;1000;466;514
4.062;1000;470;515
4.063;1000;470;517
4.064;1000;469;513
4.065;1000;470;513
4.066;1000;471;514
4.067;1000;474;517
4.068;1000;476;515
4.069;1000;476;513
4.07;1000;477;515
4.071;1000;479;515
4.072;1000;479;516
4.073;1000;477;519
4.074;1000;478;516
4.075;1000;482;513
4.076;1000;482;513
4.077;1000;481;515
4.078;1000;480;515
4.079;1000;479;516
4.08;1000;478;513
4.081;1000;478;514
4.082;1000;478;515
4.083;1000;478;516
4.084;1000;476;515
4.085;1000;478;515
4.086;1000;484;515
4.087;1000;488;513
4.088;1000;488;518
4.089;1000;489;515
4.09;1000;489;513
4.091;1000;487;512
4.092;1000;487;515
4.093;1000;486;517
4.094;1000;486;515
4.095;1000;486;512
4.096;1000;484;514
4.097;1000;483;515
4.098;1000;485;515
4.099;1000;486;513
4.1;1000;484;513
4.101;1000;483;514
4.102;1000;483;513
4.103;1000;483;518
4.104;1000;484;515
4.105;1000;483;518
4.106;1000;485;514
4.107;1000;488;514
4.108;1000;492;518
4.109;1000;492;515
4.11;1000;492;512
4.111;1000;491;513
4.112;1000;494;515
4.113;1000;496;517
4.114;1000;497;513
4.115;1000;496;512
4.116;1000;494;513
4.117;1000;494;515
4.118;1000;495;515
4.119;1000;496;513
4.12;1000;496;512
4.121;1000;495;513
4.122;1000;497;517
4.123;1000;497;514
4.124;1000;499;516
4.125;1000;503;512
4.126;1000;503;513
4.127;1000;505;515
4.128;1000;507;517
4.129;1000;505;515
4.13;1000;503;513
4.131;1000;504;514
4.132;1000;504;515
4.133;1000;503;516
4.134;1000;505;512
4.135;1000;505;514
4.136;1000;505;514
4.137;1000;506;515
4.138;1000;508;518
4.139;1000;511;515
4.14;1000;512;513
4.141;1000;511;514
4.142;1000;511;515
4.143;1000;509;515
4.144;1000;505;515
4.145;1000;503;513
4.146;1000;502;513
4.147;1000;504;515
4.148;1000;505;514
4.149;1000;505;514
4.15;1000;506;514
4.151;1000;509;515
4.152;1000;510;512
4.153;1000;511;518
4.154;1000;512;515
4.155;1000;513;512
4.156;1000;514;513
4.157;1000;514;515
4.158;1000;514;516
4.159;1000;515;515
4.16;1000;516;512
4.161;1000;515;513
4.162;1000;513;512
4.163;1000;512;516
4.164;1000;512;515
4.165;1000;513;512
4.166;1000;515;513
4.167;1000;519;515
4.168;1000;522;515
4.169;1000;524;515
4.17;1000;525;513
4.171;1000;527;512
4.172;1000;531;514
4.173;1000;531;516
4.174;1000;532;512
4.175;1000;534;511
4.176;1000;532;512
4.177;1000;528;514
4.178;1000;527;514
4.179;1000;529;512
4.18;1000;530;512
4.181;1000;531;512
4.182;1000;533;516
4.183;1000;534;513
4.184;1000;535;516
4.185;1000;537;511
4.186;1000;537;512
4.187;1000;538;514
4.188;1000;538;516
4.189;1000;539;514
4.19;1000;541;511
4.191;1000;543;512
4.192;1000;543;513
4.193;1000;543;515
4.194;1000;544;511
4.195;1000;545;510
4.196;1000;545;511
4.197;1000;545;513
4.198;1000;546;513
4.199;1000;545;513
4.2;1000;547;511
4.201;1000;546;511
4.202;1000;546;515
4.203;1000;549;512
4.204;1000;555;514
4.205;1000;556;510
4.206;1000;554;511
4.207;1000;556;513
4.208;1000;556;515
4.209;1000;558;513
4.21;1000;560;511
4.211;1000;561;511
4.212;1000;561;511
4.213;1000;562;516
4.214;1000;561;515
4.215;1000;557;512
4.216;1000;557;512
4.217;1000;562;517
4.218;1000;565;513
4.219;1000;568;515
4.22;1000;569;513
4.221;1000;567;513
4.222;1000;564;515
4.223;1000;563;517
4.224;1000;564;513
4.225;1000;565;513
4.226;1000;564;514
4.227;1000;567;518
4.228;1000;566;516
4.229;1000;565;514
4.23;1000;564;517
4.231;1000;565;517
4.232;1000;562;518
4.233;1000;565;519
4.234;1000;567;519
4.235;1000;568;516
4.236;1000;566;518
4.237;1000;565;521
4.238;1000;564;523
4.239;1000;563;521
4.24;1000;563;519
4.241;1000;560;520
4.242;1000;558;519
4.243;1000;555;525
4.244;1000;556;524
4.245;1000;556;522
4.246;1000;554;522
4.247;1000;553;527
4.248;1000;552;524
4.249;1000;552;526
4.25;1000;551;524
4.251;1000;549;524
4.252;1000;548;526
4.253;1000;545;528
4.254;1000;542;525
4.255;1000;538;526
4.256;1000;531;527
4.257;1000;531;529
4.258;1000;532;529
4.259;1000;531;528
4.26;1000;529;528
4.261;1000;523;529
4.262;1000;521;534
4.263;1000;519;531
4.264;1000;516;535
4.265;1000;513;531
4.266;1000;511;534
4.267;1000;509;534
4.268;1000;509;536
4.269;1000;508;535
4.27;1000;507;533
4.271;1000;505;535
4.272;1000;504;537
4.273;1000;501;538
4.274;1000;498;536
4.275;1000;497;537
4.276;1000;493;539
4.277;1000;489;540
4.278;1000;489;541
4.279;1000;489;541
4.28;1000;486;541
4.281;1000;483;543
4.282;1000;480;540
4.283;1000;477;547
4.284;1000;476;544
4.285;1000;475;542
4.286;1000;474;543
4.287;1000;473;545
4.288;1000;473;548
4.289;1000;472;546
4.29;1000;472;543
4.291;1000;471;545
4.292;1000;470;544
4.293;1000;469;550
4.294;1000;466;547
4.295;1000;468;550
4.296;1000;469;547
4.297;1000;466;546
4.298;1000;465;551
4.299;1000;467;550
4.3;1000;468;547
4.301;1000;469;548
4.302;1000;469;550
4.303;1000;467;553
4.304;1000;465;548
4.305;1000;463;548
4.306;1000;462;550
4.307;1000;461;551
4.308;1000;462;551
4.309;1000;460;550
4.31;1000;462;549
4.311;1000;462;550
4.312;1000;463;553
4.313;1000;463;552
4.314;1000;464;553
4.315;1000;465;549
4.316;1000;467;550
4.317;1000;467;552
4.318;1000;467;554
4.319;1000;464;552
4.32;1000;463;548
4.321;1000;459;550
4.322;1000;458;551
4.323;1000;458;551
4.324;1000;456;553
4.325;1000;456;549
4.326;1000;458;550
4.327;1000;460;554
4.328;1000;462;550
4.329;1000;465;552
4.33;1000;468;548
4.331;1000;468;549
4.332;1000;467;550
4.333;1000;464;552
4.334;1000;462;550
4.335;1000;465;546
4.336;1000;469;547
4.337;1000;472;548
4.338;1000;472;547
4.339;1000;470;545
4.34;1000;467;544
4.341;1000;466;546
4.342;1000;464;544
4.343;1000;464;548
4.344;1000;464;544
4.345;1000;466;547
4.346;1000;470;543
4.347;1000;471;543
4.348;1000;468;545
4.349;1000;467;543
4.35;1000;466;540
4.351;1000;469;540
4.352;1000;472;542
4.353;1000;471;541
4.354;1000;472;540
4.355;1000;472;539
4.356;1000;474;540
4.357;1000;475;540
4.358;1000;476;539
4.359;1000;477;536
4.36;1000;479;535
4.361;1000;476;535
4.362;1000;473;537
4.363;1000;472;536
4.364;1000;471;536
4.365;1000;470;532
4.366;1000;471;533
4.367;1000;472;534
4.368;1000;472;536
4.369;1000;474;531
4.37;1000;474;529
4.371;1000;475;529
4.372;1000;476;532
4.373;1000;476;530
4.374;1000;476;530
4.375;1000;474;527
4.376;1000;475;527
4.377;1000;476;528
4.378;1000;476;530
4.379;1000;477;527
4.38;1000;477;524
4.381;1000;477;524
4.382;1000;476;525
4.383;1000;475;524
4.384;1000;477;524
4.385;1000;479;520
4.386;1000;480;521
4.387;1000;479;522
4.388;1000;480;522
4.389;1000;478;521
4.39;1000;478;519
4.391;1000;479;520
4.392;1000;479;517
4.393;1000;478;522
4.394;1000;478;515
4.395;1000;476;516
4.396;1000;474;516
4.397;1000;473;517
4.398;1000;474;519
4.399;1000;476;516
4.4;1000;477;513
4.401;1000;476;514
4.402;1000;475;514
4.403;1000;473;515
4.404;1000;472;512
4.405;1000;476;510
4.406;1000;477;511
4.407;1000;479;512
4.408;1000;480;511
4.409;1000;480;515
4.41;1000;480;509
4.411;1000;480;509
4.412;1000;480;511
4.413;1000;481;510
4.414;1000;481;511
4.415;1000;482;508
4.416;1000;483;509
4.417;1000;483;509
4.418;1000;485;508
4.419;1000;486;511
4.42;1000;485;507
4.421;1000;483;507
4.422;1000;481;506
4.423;1000;480;509
4.424;1000;479;509
4.425;1000;482;505
4.426;1000;483;505
4.427;1000;483;507
4.428;1000;482;509
4.429;1000;483;507
4.43;1000;485;504
4.431;1000;486;505
4.432;1000;485;506
4.433;1000;485;505
4.434;1000;484;504
4.435;1000;484;503
4.436;1000;483;504
4.437;1000;483;503
4.438;1000;484;507
4.439;1000;483;502
4.44;1000;485;502
4.441;1000;485;503
4.442;1000;484;500
4.443;1000;482;504
4.444;1000;481;504
4.445;1000;480;502
4.446;1000;483;502
4.447;1000;486;504
4.448;1000;487;505
4.449;1000;487;502
4.45;1000;487;501
4.451;1000;487;502
4.452;1000;489;503
4.453;1000;490;503
4.454;1000;491;505
4.455;1000;492;501
4.456;1000;491;502
4.457;1000;492;504
4.458;1000;494;505
4.459;1000;493;502
4.46;1000;492;499
4.461;1000;491;501
4.462;1000;488;501
4.463;1000;485;504
4.464;1000;484;500
4.465;1000;485;499
4.466;1000;487;500
4.467;1000;489;502
4.468;1000;489;501
4.469;1000;491;505
4.47;1000;493;501
4.471;1000;493;500
4.472;1000;495;504
4.473;1000;495;501
4.474;1000;492;502
4.475;1000;492;499
4.476;1000;491;500
4.477;1000;490;502
4.478;1000;490;504
4.479;1000;492;500
4.48;1000;492;499
4.481;1000;493;501
4.482;1000;488;503
4.483;1000;484;503
4.484;1000;484;501
4.485;1000;488;500
4.486;1000;491;501
4.487;1000;494;506
4.488;1000;495;502
4.489;1000;495;506
4.49;1000;496;501
4.491;1000;497;503
4.492;1000;497;504
4.493;1000;495;507
4.494;1000;495;505
4.495;1000;496;502
4.496;1000;497;504
4.497;1000;499;505
4.498;1000;499;505
4.499;1000;499;506
4.5;1000;497;504
4.501;1000;498;505
4.502;1000;499;507
4.503;1000;498;507
4.504;1000;497;507
4.505;1000;498;506
4.506;1000;500;508
4.507;1000;501;505
4.508;1000;500;509
4.509;1000;500;509
4.51;1000;500;507
4.511;1000;504;508
4.512;1000;507;510
4.513;1000;509;512
4.514;1000;510;510
4.515;1000;509;509
4.516;1000;508;510
4.517;1000;506;511
4.518;1000;503;511
4.519;1000;501;513
4.52;1000;502;510
4.521;1000;502;511
4.522;1000;500;513
4.523;1000;498;515
4.524;1000;497;513
4.525;1000;498;511
4.526;1000;501;512
4.527;1000;502;513
4.528;1000;503;516
4.529;1000;505;512
4.53;1000;507;512
4.531;1000;508;514
4.532;1000;510;515
4.533;1000;509;515
4.534;1000;509;518
4.535;1000;507;514
4.536;1000;505;513
4.537;1000;504;519
4.538;1000;505;515
4.539;1000;508;517
4.54;1000;507;515
4.541;1000;505;516
4.542;1000;504;518
4.543;1000;505;518
4.544;1000;508;516
4.545;1000;509;515
4.546;1000;507;516
4.547;1000;508;519
4.548;1000;511;518
4.549;1000;510;515
4.55;1000;512;518
4.551;1000;515;519
4.552;1000;515;520
4.553;1000;515;523
4.554;1000;514;520
4.555;1000;512;518
4.556;1000;511;518
4.557;1000;510;520
4.558;1000;510;520
4.559;1000;510;520
4.56;1000;511;518
4.561;1000;510;519
4.562;1000;509;520
4.563;1000;508;521
4.564;1000;506;520
4.565;1000;505;520
4.566;1000;509;521
4.567;1000;512;519
4.568;1000;516;525
4.569;1000;518;521
4.57;1000;519;519
4.571;1000;521;519
4.572;1000;522;521
4.573;1000;521;523
4.574;1000;519;522
4.575;1000;519;519
4.576;1000;518;520
4.577;1000;515;522
4.578;1000;513;521
4.579;1000;513;520
4.58;1000;511;519
4.581;1000;509;520
4.582;1000;508;519
4.583;1000;511;524
4.584;1000;513;520
4.585;1000;515;520
4.586;1000;515;521
4.587;1000;516;520
4.588;1000;515;521
4.589;1000;514;519
4.59;1000;516;519
4.591;1000;518;521
4.592;1000;518;522
4.593;1000;516;522
4.594;1000;515;519
4.595;1000;515;519
4.596;1000;513;520
4.597;1000;512;522
4.598;1000;511;522
4.599;1000;512;519
4.6;1000;512;519
4.601;1000;512;520
4.602;1000;514;521
4.603;1000;516;520
4.604;1000;516;518
4.605;1000;515;518
4.606;1000;515;519
4.607;1000;513;520
4.608;1000;512;520
4.609;1000;514;517
4.61;1000;517;523
4.611;1000;520;519
4.612;1000;519;518
4.613;1000;515;522
4.614;1000;513;520
4.615;1000;512;522
4.616;1000;511;520
4.617;1000;509;518
4.618;1000;510;523
4.619;1000;510;519
4.62;1000;510;520
4.621;1000;507;519
4.622;1000;509;519
4.623;1000;511;519
4.624;1000;511;522
4.625;1000;514;518
4.626;1000;514;519
4.627;1000;514;520
4.628;1000;515;522
4.629;1000;516;520
4.63;1000;516;517
4.631;1000;516;518
4.632;1000;518;519
4.633;1000;517;518
4.634;1000;519;521
4.635;1000;519;516
4.636;1000;521;517
4.637;1000;525;519
4.638;1000;524;521
4.639;1000;520;519
4.64;1000;518;515
4.641;1000;517;517
4.642;1000;513;518
4.643;1000;513;517
4.644;1000;515;521
4.645;1000;515;516
4.646;1000;517;517
4.647;1000;520;519
4.648;1000;521;516
4.649;1000;521;519
4.65;1000;522;515
4.651;1000;523;516
4.652;1000;524;518
4.653;1000;524;519
4.654;1000;523;518
4.655;1000;523;514
4.656;1000;523;515
4.657;1000;523;517
4.658;1000;524;515
4.659;1000;523;519
4.66;1000;522;514
4.661;1000;518;516
4.662;1000;516;514
4.663;1000;514;519
4.664;1000;512;515
4.665;1000;511;513
4.666;1000;510;513
4.667;1000;510;515
4.668;1000;510;517
4.669;1000;510;515
4.67;1000;508;512
4.671;1000;505;513
4.672;1000;505;514
4.673;1000;506;514
4.674;1000;509;512
4.675;1000;509;511
4.676;1000;508;512
4.677;1000;505;511
4.678;1000;505;516
4.679;1000;508;512
4.68;1000;506;514
4.681;1000;504;512
4.682;1000;500;512
4.683;1000;498;515
4.684;1000;497;513
4.685;1000;497;510
4.686;1000;499;511
4.687;1000;500;512
4.688;1000;502;514
4.689;1000;502;510
4.69;1000;503;509
4.691;1000;504;510
4.692;1000;506;511
4.693;1000;509;512
4.694;1000;510;510
4.695;1000;512;509
4.696;1000;511;510
4.697;1000;508;513
4.698;1000;507;510
4.699;1000;504;513
4.7;1000;504;509
4.701;1000;502;510
4.702;1000;497;511
4.703;1000;496;514
4.704;1000;499;511
4.705;1000;499;508
4.706;1000;501;508
4.707;1000;502;512
4.708;1000;502;510
4.709;1000;501;507
4.71;1000;500;509
4.711;1000;503;510
4.712;1000;505;511
4.713;1000;505;513
4.714;1000;507;511
4.715;1000;508;507
4.716;1000;505;508
4.717;1000;504;510
4.718;1000;503;509
4.719;1000;503;510
4.72;1000;503;507
4.721;1000;503;508
4.722;1000;504;509
4.723;1000;503;510
4.724;1000;502;508
4.725;1000;502;508
4.726;1000;502;509
4.727;1000;500;507
4.728;1000;502;511
4.729;1000;504;508
4.73;1000;505;506
4.731;1000;507;506
4.732;1000;510;508
4.733;1000;512;510
4.734;1000;514;508
4.735;1000;515;505
4.736;1000;516;506
4.737;1000;515;508
4.738;1000;511;508
4.739;1000;507;506
4.74;1000;504;506
4.741;1000;501;507
4.742;1000;499;505
4.743;1000;499;510
4.744;1000;500;507
4.745;1000;500;510
4.746;1000;502;507
4.747;1000;502;507
4.748;1000;502;510
4.749;1000;499;508
4.75;1000;497;505
4.751;1000;496;507
4.752;1000;494;508
4.753;1000;492;511
4.754;1000;486;508
4.755;1000;483;505
4.756;1000;479;507
4.757;1000;479;508
4.758;1000;481;510
4.759;1000;483;507
4.76;1000;483;506
4.761;1000;484;507
4.762;1000;484;509
4.763;1000;486;507
4.764;1000;495;510
4.765;1000;505;507
4.766;1000;517;507
4.767;1000;528;509
4.768;1000;537;508
4.769;1000;548;512
4.77;1000;563;508
4.771;1000;579;508
4.772;1000;591;508
4.773;1000;607;512
4.774;1000;624;509
4.775;1000;642;508
4.776;1000;659;509
4.777;1000;673;510
4.778;1000;685;512
4.779;1000;695;510
4.78;1000;705;507
4.781;1000;717;508
4.782;1000;730;509
4.783;1000;743;509
4.784;1000;756;510
4.785;1000;768;507
4.786;1000;777;509
4.787;1000;785;510
4.788;1000;788;510
4.789;1000;784;509
4.79;1000;776;509
4.791;1000;767;511
4.792;1000;749;508
4.793;1000;726;513
4.794;1000;697;510
4.795;1000;664;508
4.796;1000;629;509
4.797;1000;591;511
4.798;1000;563;512
4.799;1000;538;511
4.8;1000;519;508
4.801;1000;505;509
4.802;1000;493;508
4.803;1000;484;513
4.804;1000;477;512
4.805;1000;474;509
4.806;1000;471;510
4.807;1000;472;512
4.808;1000;472;511
4.809;1000;473;513
4.81;1000;472;511
4.811;1000;472;510
4.812;1000;470;511
4.813;1000;467;513
4.814;1000;464;510
4.815;1000;463;509
4.816;1000;463;511
4.817;1000;463;512
4.818;1000;464;512
4.819;1000;461;511
4.82;1000;457;510
4.821;1000;455;510
4.822;1000;454;515
4.823;1000;453;510
4.824;1000;454;514
4.825;1000;455;510
4.826;1000;456;511
4.827;1000;459;512
4.828;1000;460;514
4.829;1000;460;513
4.83;1000;462;510
4.831;1000;463;511
4.832;1000;465;512
4.833;1000;466;515
4.834;1000;472;511
4.835;1000;473;511
4.836;1000;473;512
4.837;1000;472;513
4.838;1000;472;512
4.839;1000;470;515
4.84;1000;471;512
4.841;1000;470;511
4.842;1000;471;516
4.843;1000;470;512
4.844;1000;468;514
4.845;1000;468;511
4.846;1000;470;512
4.847;1000;478;513
4.848;1000;484;516
4.849;1000;487;514
4.85;1000;486;511
4.851;1000;482;512
4.852;1000;481;511
4.853;1000;482;516
4.854;1000;481;515
4.855;1000;482;512
4.856;1000;483;512
4.857;1000;484;515
4.858;1000;482;513
4.859;1000;480;511
4.86;1000;479;511
4.861;1000;480;512
4.862;1000;483;514
4.863;1000;483;515
4.864;1000;483;514
4.865;1000;486;511
4.866;1000;487;511
4.867;1000;487;515
4.868;1000;489;513
4.869;1000;489;511
4.87;1000;490;513
4.871;1000;491;513
4.872;1000;488;515
4.873;1000;489;518
4.874;1000;492;515
4.875;1000;491;512
4.876;1000;489;513
4.877;1000;489;515
4.878;1000;489;517
4.879;1000;489;513
4.88;1000;488;512
4.881;1000;488;513
4.882;1000;488;515
4.883;1000;487;515
4.884;1000;487;514
4.885;1000;488;513
4.886;1000;491;513
4.887;1000;494;517
4.888;1000;495;514
4.889;1000;495;517
4.89;1000;497;512
4.891;1000;499;513
4.892;1000;500;515
4.893;1000;500;517
4.894;1000;500;515
4.895;1000;502;513
4.896;1000;499;514
4.897;1000;500;515
4.898;1000;502;515
4.899;1000;502;518
4.9;1000;499;514
4.901;1000;497;515
4.902;1000;497;513
4.903;1000;496;517
4.904;1000;497;517
4.905;1000;501;514
4.906;1000;503;514
4.907;1000;507;515
4.908;1000;507;517
4.909;1000;508;516
4.91;1000;508;513
4.911;1000;509;515
4.912;1000;509;516
4.913;1000;509;515
4.914;1000;509;514
4.915;1000;510;513
4.916;1000;507;514
4.917;1000;504;513
4.918;1000;507;518
4.919;1000;510;514
4.92;1000;509;515
4.921;1000;505;515
4.922;1000;502;515
4.923;1000;503;518
4.924;1000;503;516
4.925;1000;504;512
4.926;1000;505;513
4.927;1000;505;515
4.928;1000;506;514
4.929;1000;509;513
4.93;1000;511;513
4.931;1000;514;515
4.932;1000;516;515
4.933;1000;516;515
4.934;1000;515;517
4.935;1000;514;513
4.936;1000;515;515
4.937;1000;514;515
4.938;1000;513;517
4.939;1000;516;515
4.94;1000;516;512
4.941;1000;515;513
4.942;1000;514;514
4.943;1000;515;516
4.944;1000;515;512
4.945;1000;516;512
4.946;1000;518;513
4.947;1000;519;514
4.948;1000;519;514
4.949;1000;521;516
4.95;1000;524;513
4.951;1000;524;511
4.952;1000;526;516
4.953;1000;526;512
4.954;1000;525;514
4.955;1000;525;511
4.956;1000;526;511
4.957;1000;524;513
4.958;1000;523;515
4.959;1000;523;511
4.96;1000;522;510
4.961;1000;521;512
4.962;1000;524;513
4.963;1000;526;513
4.964;1000;528;511
4.965;1000;527;510
4.966;1000;528;511
4.967;1000;534;515
4.968;1000;536;511
4.969;1000;537;515
4.97;1000;539;510
4.971;1000;543;512
4.972;1000;545;513
4.973;1000;544;515
4.974;1000;544;513
4.975;1000;545;510
4.976;1000;543;511
4.977;1000;541;512
4.978;1000;542;512
4.979;1000;542;513
4.98;1000;543;511
4.981;1000;543;511
4.982;1000;545;513
4.983;1000;547;513
4.984;1000;548;512
4.985;1000;551;512
4.986;1000;553;514
4.987;1000;555;510
4.988;1000;558;514
4.989;1000;560;514
4.99;1000;562;511
4.991;1000;564;513
4.992;1000;564;514
4.993;1000;565;513
4.994;1000;567;517
4.995;1000;566;512
4.996;1000;566;514
4.997;1000;566;512
4.998;1000;568;515
4.999;1000;568;515
5;1000;567;513
5.001;1000;566;513
5.002;1000;566;515
5.003;1000;566;517
5.004;1000;566;515
5.005;1000;566;512
5.006;1000;565;514
5.007;1000;567;516
5.008;1000;572;515
5.009;1000;577;514
5.01;1000;579;513
5.011;1000;579;515
5.012;1000;575;514
5.013;1000;571;519
5.014;1000;570;516
5.015;1000;566;516
5.016;1000;567;516
5.017;1000;565;516
5.018;1000;567;519
5.019;1000;569;517
5.02;1000;570;515
5.021;1000;568;516
5.022;1000;563;518
5.023;1000;561;518
5.024;1000;562;519
5.025;1000;564;517
5.026;1000;565;519
5.027;1000;568;520
5.028;1000;568;521
5.029;1000;563;521
5.03;1000;559;521
5.031;1000;561;523
5.032;1000;561;519
5.033;1000;560;526
5.034;1000;557;519
5.035;1000;552;522
5.036;1000;549;523
5.037;1000;546;524
5.038;1000;544;527
5.039;1000;543;525
5.04;1000;538;523
5.041;1000;534;525
5.042;1000;532;527
5.043;1000;530;529
5.044;1000;527;526
5.045;1000;526;526
5.046;1000;525;527
5.047;1000;522;529
5.048;1000;519;529
5.049;1000;518;533
5.05;1000;516;529
5.051;1000;514;529
5.052;1000;512;532
5.053;1000;508;532
5.054;1000;504;535
5.055;1000;501;532
5.056;1000;498;534
5.057;1000;497;536
5.058;1000;495;535
5.059;1000;492;539
5.06;1000;489;536
5.061;1000;486;537
5.062;1000;482;536
5.063;1000;480;540
5.064;1000;479;538
5.065;1000;478;538
5.066;1000;479;540
5.067;1000;479;540
5.068;1000;478;543
5.069;1000;478;542
5.07;1000;479;540
5.071;1000;479;541
5.072;1000;479;543
5.073;1000;479;543
5.074;1000;477;543
5.075;1000;472;543
5.076;1000;469;544
5.077;1000;464;545
5.078;1000;462;544
5.079;1000;459;547
5.08;1000;459;543
5.081;1000;458;545
5.082;1000;458;547
5.083;1000;458;548
5.084;1000;456;547
5.085;1000;456;545
5.086;1000;457;546
5.087;1000;461;547
5.088;1000;462;550
5.089;1000;461;547
5.09;1000;460;546
5.091;1000;460;548
5.092;1000;461;549
5.093;1000;463;548
5.094;1000;460;552
5.095;1000;459;548
5.096;1000;457;547
5.097;1000;456;553
5.098;1000;455;548
5.099;1000;452;551
5.1;1000;452;547
5.101;1000;451;548
5.102;1000;451;550
5.103;1000;454;551
5.104;1000;454;550
5.105;1000;455;547
5.106;1000;457;548
5.107;1000;460;550
5.108;1000;462;549
5.109;1000;465;548
5.11;1000;466;548
5.111;1000;463;548
5.112;1000;461;547
5.113;1000;461;552
5.114;1000;458;548
5.115;1000;458;547
5.116;1000;459;548
5.117;1000;460;550
5.118;1000;460;552
5.119;1000;460;550
5.12;1000;462;546
5.121;1000;463;547
5.122;1000;464;545
5.123;1000;467;550
5.124;1000;468;549
5.125;1000;469;545
5.126;1000;467;545
5.127;1000;470;547
5.128;1000;470;545
5.129;1000;471;547
5.13;1000;473;544
5.131;1000;475;544
5.132;1000;476;544
5.133;1000;477;546
5.134;1000;476;541
5.135;1000;473;540
5.136;1000;474;541
5.137;1000;475;542
5.138;1000;473;542
5.139;1000;471;540
5.14;1000;470;538
5.141;1000;468;538
5.142;1000;468;542
5.143;1000;466;538
5.144;1000;467;540
5.145;1000;471;535
5.146;1000;475;536
5.147;1000;476;536
5.148;1000;477;538
5.149;1000;476;536
5.15;1000;475;532
5.151;1000;475;534
5.152;1000;474;534
5.153;1000;474;536
5.154;1000;477;531
5.155;1000;478;530
5.156;1000;477;531
5.157;1000;476;531
5.158;1000;475;530
5.159;1000;472;532
5.16;1000;472;528
5.161;1000;473;526
5.162;1000;473;530
5.163;1000;472;526
5.164;1000;472;528
5.165;1000;473;524
5.166;1000;475;524
5.167;1000;475;525
5.168;1000;476;524
5.169;1000;477;522
5.17;1000;480;521
5.171;1000;483;522
5.172;1000;485;519
5.173;1000;483;524
5.174;1000;483;522
5.175;1000;483;519
5.176;1000;478;519
5.177;1000;478;522
5.178;1000;480;518
5.179;1000;480;519
5.18;1000;479;515
5.181;1000;477;517
5.182;1000;477;517
5.183;1000;478;519
5.184;1000;480;515
5.185;1000;482;513
5.186;1000;485;513
5.187;1000;487;516
5.188;1000;487;513
5.189;1000;486;511
5.19;1000;485;512
5.191;1000;485;512
5.192;1000;485;513
5.193;1000;486;515
5.194;1000;487;513
5.195;1000;486;509
5.196;1000;484;510
5.197;1000;482;510
5.198;1000;481;509
5.199;1000;483;509
5.2;1000;485;507
5.201;1000;485;507
5.202;1000;482;508
5.203;1000;480;507
5.204;1000;481;507
5.205;1000;483;506
5.206;1000;486;507
5.207;1000;485;504
5.208;1000;482;508
5.209;1000;480;505
5.21;1000;480;503
5.211;1000;483;503
5.212;1000;486;504
5.213;1000;488;506
5.214;1000;489;504
5.215;1000;489;500
5.216;1000;488;501
5.217;1000;487;503
5.218;1000;487;502
5.219;1000;486;502
5.22;1000;483;500
5.221;1000;480;501
5.222;1000;479;500
5.223;1000;479;504
5.224;1000;482;499
5.225;1000;484;499
5.226;1000;485;500
5.227;1000;486;500
5.228;1000;487;500
5.229;1000;490;498
5.23;1000;491;498
5.231;1000;492;499
5.232;1000;492;500
5.233;1000;491;500
5.234;1000;491;498
5.235;1000;493;497
5.236;1000;494;499
5.237;1000;494;499
5.238;1000;495;499
5.239;1000;494;497
5.24;1000;487;497
5.241;1000;485;499
5.242;1000;483;499
5.243;1000;484;497
5.244;1000;485;496
5.245;1000;484;496
5.246;1000;483;497
5.247;1000;485;498
5.248;1000;487;497
5.249;1000;486;495
5.25;1000;488;500
5.251;1000;491;498
5.252;1000;492;496
5.253;1000;493;501
5.254;1000;492;499
5.255;1000;491;499
5.256;1000;492;499
5.257;1000;494;497
5.258;1000;496;502
5.259;1000;496;499
5.26;1000;496;499
5.261;1000;498;500
5.262;1000;496;500
5.263;1000;491;500
5.264;1000;489;503
5.265;1000;489;499
5.266;1000;492;500
5.267;1000;495;501
5.268;1000;497;504
5.269;1000;499;503
5.27;1000;499;500
5.271;1000;499;502
5.272;1000;499;503
5.273;1000;500;502
5.274;1000;499;505
5.275;1000;499;501
5.276;1000;499;502
5.277;1000;500;504
5.278;1000;501;503
5.279;1000;499;505
5.28;1000;498;503
5.281;1000;497;504
5.282;1000;496;503
5.283;1000;495;508
5.284;1000;495;507
5.285;1000;495;504
5.286;1000;495;504
5.287;1000;497;508
5.288;1000;497;507
5.289;1000;499;509
5.29;1000;501;506
5.291;1000;503;507
5.292;1000;504;508
5.293;1000;505;510
5.294;1000;507;507
5.295;1000;508;506
5.296;1000;506;508
5.297;1000;506;509
5.298;1000;505;509
5.299;1000;505;508
5.3;1000;504;508
5.301;1000;502;509
5.302;1000;500;514
5.303;1000;500;510
5.304;1000;500;513
5.305;1000;501;508
5.306;1000;504;510
5.307;1000;505;512
5.308;1000;506;514
5.309;1000;508;513
5.31;1000;509;510
5.311;1000;509;512
5.312;1000;510;513
5.313;1000;513;513
5.314;1000;513;514
5.315;1000;512;511
5.316;1000;510;511
5.317;1000;511;515
5.318;1000;509;513
5.319;1000;507;511
5.32;1000;508;514
5.321;1000;508;514
5.322;1000;509;513
5.323;1000;505;516
5.324;1000;504;516
5.325;1000;508;514
5.326;1000;509;516
5.327;1000;508;517
5.328;1000;508;516
5.329;1000;510;518
5.33;1000;510;515
5.331;1000;510;517
5.332;1000;510;516
5.333;1000;510;520
5.334;1000;510;520
5.335;1000;510;516
5.336;1000;510;518
5.337;1000;512;522
5.338;1000;514;518
5.339;1000;514;521
5.34;1000;515;518
5.341;1000;515;520
5.342;1000;514;521
5.343;1000;513;524
5.344;1000;512;520
5.345;1000;512;519
5.346;1000;512;520
5.347;1000;514;523
5.348;1000;516;522
5.349;1000;518;520
5.35;1000;519;521
5.351;1000;517;523
5.352;1000;518;524
5.353;1000;516;526
5.354;1000;516;524
5.355;1000;516;521
5.356;1000;515;522
5.357;1000;513;523
5.358;1000;513;523
5.359;1000;514;524
5.36;1000;516;521
5.361;1000;516;523
5.362;1000;516;524
5.363;1000;516;524
5.364;1000;518;524
5.365;1000;523;523
5.366;1000;526;525
5.367;1000;527;521
5.368;1000;527;527
5.369;1000;527;524
5.37;1000;527;521
5.371;1000;526;523
5.372;1000;523;524
5.373;1000;524;526
5.374;1000;525;524
5.375;1000;524;521
5.376;1000;524;523
5.377;1000;525;524
5.378;1000;526;523
5.379;1000;525;523
5.38;1000;524;523
5.381;1000;524;524
5.382;1000;521;522
5.383;1000;520;526
5.384;1000;520;520
5.385;1000;521;523
5.386;1000;521;523
5.387;1000;523;524
5.388;1000;523;526
5.389;1000;524;524
5.39;1000;523;521
5.391;1000;525;522
5.392;1000;525;524
5.393;1000;524;526
5.394;1000;520;522
5.395;1000;518;521
5.396;1000;516;523
5.397;1000;515;523
5.398;1000;514;523
5.399;1000;508;527
5.4;1000;506;521
5.401;1000;506;521
5.402;1000;504;526
5.403;1000;503;520
5.404;1000;503;523
5.405;1000;505;520
5.406;1000;508;521
5.407;1000;510;522
5.408;1000;506;525
5.409;1000;503;520
5.41;1000;507;519
5.411;1000;508;519
5.412;1000;509;523
5.413;1000;509;521
5.414;1000;509;524
5.415;1000;510;519
5.416;1000;510;521
5.417;1000;511;521
5.418;1000;512;523
5.419;1000;510;520
5.42;1000;509;518
5.421;1000;508;519
5.422;1000;508;520
5.423;1000;506;519
5.424;1000;505;520
5.425;1000;509;517
5.426;1000;511;519
5.427;1000;510;519
5.428;1000;504;519
5.429;1000;503;518
5.43;1000;504;518
5.431;1000;506;520
5.432;1000;508;516
5.433;1000;511;521
5.434;1000;512;518
5.435;1000;511;516
5.436;1000;511;517
5.437;1000;511;518
5.438;1000;511;520
5.439;1000;511;519
5.44;1000;509;515
5.441;1000;506;516
5.442;1000;504;514
5.443;1000;504;519
5.444;1000;505;518
5.445;1000;507;515
5.446;1000;508;515
5.447;1000;510;518
5.448;1000;511;515
5.449;1000;510;517
5.45;1000;508;514
5.451;1000;509;514
5.452;1000;511;515
5.453;1000;511;517
5.454;1000;512;513
5.455;1000;510;512
5.456;1000;507;513
5.457;1000;506;514
5.458;1000;507;513
5.459;1000;507;513
5.46;1000;506;512
5.461;1000;507;512
5.462;1000;508;515
5.463;1000;506;512
5.464;1000;505;515
5.465;1000;506;510
5.466;1000;508;512
5.467;1000;511;513
5.468;1000;510;515
5.469;1000;510;513
5.47;1000;510;510
5.471;1000;511;511
5.472;1000;512;512
5.473;1000;511;514
5.474;1000;510;511
5.475;1000;511;510
5.476;1000;512;512
5.477;1000;513;512
5.478;1000;511;511
5.479;1000;506;514
5.48;1000;503;510
5.481;1000;498;510
5.482;1000;496;513
5.483;1000;492;510
5.484;1000;489;513
5.485;1000;489;509
5.486;1000;488;511
5.487;1000;487;511
5.488;1000;486;510
5.489;1000;486;511
5.49;1000;486;509
5.491;1000;487;511
5.492;1000;486;511
5.493;1000;488;513
5.494;1000;489;511
5.495;1000;493;508
5.496;1000;499;510
5.497;1000;506;511
5.498;1000;512;511
5.499;1000;521;508
5.5;1000;529;507
5.501;1000;537;509
5.502;1000;547;511
5.503;1000;555;512
5.504;1000;566;511
5.505;1000;582;508
5.506;1000;597;508
5.507;1000;613;512
5.508;1000;630;509
5.509;1000;647;507
5.51;1000;663;512
5.511;1000;678;509
5.512;1000;690;511
5.513;1000;702;512
5.514;1000;713;510
5.515;1000;724;508
5.516;1000;732;508
5.517;1000;741;509
5.518;1000;751;509
5.519;1000;759;510
5.52;1000;761;507
5.521;1000;760;508
5.522;1000;756;509
5.523;1000;751;509
5.524;1000;738;508
5.525;1000;716;508
5.526;1000;691;510
5.527;1000;663;506
5.528;1000;632;512
5.529;1000;595;508
5.53;1000;561;506
5.531;1000;537;507
5.532;1000;518;508
5.533;1000;500;508
5.534;1000;487;506
5.535;1000;477;506
5.536;1000;470;508
5.537;1000;465;509
5.538;1000;463;508
5.539;1000;464;507
5.54;1000;463;506
5.541;1000;462;508
5.542;1000;462;509
5.543;1000;462;508
5.544;1000;462;506
5.545;1000;463;505
5.546;1000;462;508
5.547;1000;460;505
5.548;1000;458;509
5.549;1000;460;507
5.55;1000;461;509
5.551;1000;461;507
5.552;1000;460;506
5.553;1000;461;511
5.554;1000;461;510
5.555;1000;459;507
5.556;1000;458;508
5.557;1000;459;509
5.558;1000;461;511
5.559;1000;460;509
5.56;1000;458;506
5.561;1000;458;507
5.562;1000;459;506
5.563;1000;457;510
5.564;1000;459;510
5.565;1000;463;507
5.566;1000;465;509
5.567;1000;468;510
5.568;1000;469;511
5.569;1000;470;508
5.57;1000;471;508
5.571;1000;473;509
5.572;1000;477;510
5.573;1000;479;509
5.574;1000;478;512
5.575;1000;475;507
5.576;1000;473;509
5.577;1000;472;511
5.578;1000;472;512
5.579;1000;472;510
5.58;1000;471;506
5.581;1000;471;508
5.582;1000;472;508
5.583;1000;472;511
5.584;1000;474;508
5.585;1000;475;507
5.586;1000;476;509
5.587;1000;478;510
5.588;1000;480;509
5.589;1000;481;513
5.59;1000;483;508
5.591;1000;485;510
5.592;1000;485;511
5.593;1000;484;508
5.594;1000;485;511
5.595;1000;487;506
5.596;1000;486;508
5.597;1000;484;510
5.598;1000;485;512
5.599;1000;486;510
5.6;1000;487;507
5.601;1000;489;508
5.602;1000;490;510
5.603;1000;492;509
5.604;1000;494;512
5.605;1000;494;507
5.606;1000;492;508
5.607;1000;492;512
5.608;1000;491;508
5.609;1000;492;511
5.61;1000;493;506
5.611;1000;494;509
5.612;1000;495;510
5.613;1000;496;512
5.614;1000;497;510
5.615;1000;495;507
5.616;1000;492;509
5.617;1000;489;510
5.618;1000;492;510
5.619;1000;494;510
5.62;1000;493;508
5.621;1000;492;510
5.622;1000;492;509
5.623;1000;490;513
5.624;1000;490;510
5.625;1000;491;514
5.626;1000;492;512
5.627;1000;494;511
5.628;1000;495;514
5.629;1000;496;512
5.63;1000;502;509
5.631;1000;505;511
5.632;1000;504;512
5.633;1000;505;511
5.634;1000;504;510
5.635;1000;505;510
5.636;1000;509;512
5.637;1000;509;513
5.638;1000;508;512
5.639;1000;510;515
5.64;1000;507;511
5.641;1000;505;513
5.642;1000;504;514
5.643;1000;504;515
5.644;1000;504;514
5.645;1000;504;511
5.646;1000;503;513
5.647;1000;502;513
5.648;1000;503;516
5.649;1000;505;513
5.65;1000;508;512
5.651;1000;510;514
5.652;1000;508;515
5.653;1000;508;515
5.654;1000;508;518
5.655;1000;509;514
5.656;1000;512;513
5.657;1000;515;518
5.658;1000;519;513
5.659;1000;519;516
5.66;1000;518;513
5.661;1000;515;515
5.662;1000;511;516
5.663;1000;509;518
5.664;1000;507;515
5.665;1000;511;514
5.666;1000;515;514
5.667;1000;518;518
5.668;1000;514;516
5.669;1000;513;514
5.67;1000;512;515
5.671;1000;512;516
5.672;1000;516;518
5.673;1000;518;520
5.674;1000;521;518
5.675;1000;523;515
5.676;1000;524;516
5.677;1000;524;517
5.678;1000;523;517
5.679;1000;520;517
5.68;1000;518;515
5.681;1000;519;516
5.682;1000;520;518
5.683;1000;523;517
5.684;1000;524;517
5.685;1000;526;516
5.686;1000;528;519
5.687;1000;531;515
5.688;1000;532;520
5.689;1000;534;518
5.69;1000;536;515
5.691;1000;538;518
5.692;1000;540;518
5.693;1000;540;517
5.694;1000;538;517
5.695;1000;537;515
5.696;1000;537;518
5.697;1000;539;518
5.698;1000;539;520
5.699;1000;538;519
5.7;1000;538;516
5.701;1000;538;518
5.702;1000;539;516
5.703;1000;540;521
5.704;1000;542;518
5.705;1000;543;521
5.706;1000;547;518
5.707;1000;548;518
5.708;1000;551;520
5.709;1000;553;519
5.71;1000;553;515
5.711;1000;552;517
5.712;1000;553;518
5.713;1000;557;520
5.714;1000;559;516
5.715;1000;558;515
5.716;1000;559;517
5.717;1000;561;518
5.718;1000;563;518
5.719;1000;564;517
5.72;1000;564;515
5.721;1000;563;516
5.722;1000;562;521
5.723;1000;561;518
5.724;1000;560;520
5.725;1000;561;516
5.726;1000;563;518
5.727;1000;566;519
5.728;1000;568;521
5.729;1000;569;518
5.73;1000;567;517
5.731;1000;566;519
5.732;1000;569;519
5.733;1000;572;519
5.734;1000;575;521
5.735;1000;576;518
5.736;1000;577;519
5.737;1000;578;520
5.738;1000;579;522
5.739;1000;578;519
5.74;1000;576;516
5.741;1000;575;519
5.742;1000;573;519
5.743;1000;571;521
5.744;1000;570;518
5.745;1000;571;518
5.746;1000;572;519
5.747;1000;571;520
5.748;1000;569;520
5.749;1000;570;523
5.75;1000;572;519
5.751;1000;573;519
5.752;1000;575;524
5.753;1000;575;519
5.754;1000;572;523
5.755;1000;568;519
5.756;1000;564;520
5.757;1000;564;522
5.758;1000;565;524
5.759;1000;564;520
5.76;1000;561;520
5.761;1000;559;522
5.762;1000;557;523
5.763;1000;555;524
5.764;1000;552;523
5.765;1000;548;522
5.766;1000;547;523
5.767;1000;549;527
5.768;1000;548;524
5.769;1000;547;528
5.77;1000;546;524
5.771;1000;544;526
5.772;1000;543;527
5.773;1000;540;529
5.774;1000;536;528
5.775;1000;531;525
5.776;1000;528;527
5.777;1000;525;528
5.778;1000;522;529
5.779;1000;520;530
5.78;1000;518;527
5.781;1000;515;529
5.782;1000;512;530
5.783;1000;507;531
5.784;1000;503;531
5.785;1000;499;531
5.786;1000;496;535
5.787;1000;492;530
5.788;1000;487;534
5.789;1000;487;535
5.79;1000;487;532
5.791;1000;490;535
5.792;1000;490;536
5.793;1000;488;537
5.794;1000;484;536
5.795;1000;480;535
5.796;1000;477;537
5.797;1000;474;538
5.798;1000;474;538
5.799;1000;473;535
5.8;1000;471;537
5.801;1000;468;540
5.802;1000;466;540
5.803;1000;467;543
5.804;1000;465;542
5.805;1000;465;539
5.806;1000;466;542
5.807;1000;463;543
5.808;1000;462;542
5.809;1000;463;542
5.81;1000;462;542
5.811;1000;462;544
5.812;1000;462;544
5.813;1000;462;544
5.814;1000;462;546
5.815;1000;462;542
5.816;1000;460;545
5.817;1000;459;546
5.818;1000;458;547
5.819;1000;455;545
5.82;1000;451;542
5.821;1000;448;545
5.822;1000;447;545
5.823;1000;449;547
5.824;1000;452;544
5.825;1000;452;543
5.826;1000;451;545
5.827;1000;451;547
5.828;1000;453;546
5.829;1000;452;548
5.83;1000;455;545
5.831;1000;454;544
5.832;1000;455;549
5.833;1000;456;545
5.834;1000;457;548
5.835;1000;457;543
5.836;1000;456;546
5.837;1000;457;546
5.838;1000;455;548
5.839;1000;451;547
5.84;1000;452;544
5.841;1000;454;545
5.842;1000;457;546
5.843;1000;456;546
5.844;1000;457;545
5.845;1000;456;544
5.846;1000;459;545
5.847;1000;461;543
5.848;1000;461;547
5.849;1000;462;545
5.85;1000;462;543
5.851;1000;463;546
5.852;1000;463;544
5.853;1000;466;547
5.854;1000;467;545
5.855;1000;468;542
5.856;1000;468;543
5.857;1000;469;544
5.858;1000;468;543
5.859;1000;465;542
5.86;1000;463;541
5.861;1000;462;542
5.862;1000;462;542
5.863;1000;463;542
5.864;1000;464;540
5.865;1000;465;539
5.866;1000;468;540
5.867;1000;470;539
5.868;1000;470;539
5.869;1000;471;537
5.87;1000;471;536
5.871;1000;472;538
5.872;1000;472;538
5.873;1000;473;537
5.874;1000;476;536
5.875;1000;478;534
5.876;1000;478;536
5.877;1000;477;536
5.878;1000;475;535
5.879;1000;472;533
5.88;1000;472;531
5.881;1000;471;533
5.882;1000;471;533
5.883;1000;470;530
5.884;1000;470;529
5.885;1000;471;527
5.886;1000;472;529
5.887;1000;473;530
5.888;1000;473;528
5.889;1000;475;531
5.89;1000;478;527
5.891;1000;481;527
5.892;1000;481;525
5.893;1000;480;529
5.894;1000;479;527
5.895;1000;481;526
5.896;1000;481;526
5.897;1000;479;527
5.898;1000;478;524
5.899;1000;478;523
5.9;1000;476;521
5.901;1000;475;523
5.902;1000;474;520
5.903;1000;473;523
5.904;1000;476;519
5.905;1000;478;520
5.906;1000;481;521
5.907;1000;480;521
5.908;1000;481;523
5.909;1000;484;520
5.91;1000;485;517
5.911;1000;486;519
5.912;1000;486;519
5.913;1000;487;518
5.914;1000;486;518
5.915;1000;487;515
5.916;1000;486;515
5.917;1000;487;515
5.918;1000;487;515
5.919;1000;487;514
5.92;1000;487;512
5.921;1000;487;514
5.922;1000;486;511
5.923;1000;484;516
5.924;1000;484;515
5.925;1000;485;512
5.926;1000;484;511
5.927;1000;486;513
5.928;1000;486;512
5.929;1000;486;513
5.93;1000;487;511
5.931;1000;488;511
5.932;1000;488;511
5.933;1000;487;512
5.934;1000;486;509
5.935;1000;484;507
5.936;1000;487;508
5.937;1000;487;509
5.938;1000;485;508
5.939;1000;487;508
5.94;1000;489;506
5.941;1000;489;506
5.942;1000;487;510
5.943;1000;483;505
5.944;1000;482;509
5.945;1000;486;503
5.946;1000;487;505
5.947;1000;487;505
5.948;1000;487;508
5.949;1000;489;505
5.95;1000;491;502
5.951;1000;491;504
5.952;1000;491;505
5.953;1000;492;506
5.954;1000;493;503
5.955;1000;494;502
5.956;1000;494;504
5.957;1000;494;504
5.958;1000;493;503
5.959;1000;492;506
5.96;1000;492;501
5.961;1000;490;501
5.962;1000;490;506
5.963;1000;488;502
5.964;1000;489;504
5.965;1000;491;500
5.966;1000;491;502
5.967;1000;492;502
5.968;1000;488;504
5.969;1000;489;503
5.97;1000;494;499
5.971;1000;494;501
5.972;1000;490;499
5.973;1000;486;504
5.974;1000;484;503
5.975;1000;485;499
5.976;1000;487;500
5.977;1000;489;504
5.978;1000;491;499
5.979;1000;491;502
5.98;1000;490;499
5.981;1000;491;501
5.982;1000;489;501
5.983;1000;487;501
5.984;1000;488;502
5.985;1000;491;499
5.986;1000;491;500
5.987;1000;494;502
5.988;1000;496;502
5.989;1000;497;502
5.99;1000;500;502
5.991;1000;504;504
5.992;1000;504;500
5.993;1000;503;505
5.994;1000;501;499
5.995;1000;497;501
5.996;1000;494;502
5.997;1000;496;503
5.998;1000;495;502
5.999;1000;496;502
6;1000;496;500
6.001;1000;494;503
6.002;1000;493;504
6.003;1000;494;505
6.004;1000;497;503
6.005;1000;500;501
6.006;1000;500;502
6.007;1000;498;506
6.008;1000;494;504
6.009;1000;494;507
6.01;1000;496;503
6.011;1000;498;504
6.012;1000;499;506
6.013;1000;500;508
6.014;1000;499;507
6.015;1000;497;504
6.016;1000;494;506
6.017;1000;496;506
6.018;1000;499;505
6.019;1000;500;510
6.02;1000;497;505
6.021;1000;496;507
6.022;1000;497;505
6.023;1000;496;510
6.024;1000;497;509
6.025;1000;500;508
6.026;1000;503;509
6.027;1000;505;509
6.028;1000;506;512
6.029;1000;507;510
6.03;1000;507;508
6.031;1000;508;510
6.032;1000;508;511
6.033;1000;509;510
6.034;1000;508;510
6.035;1000;508;509
6.036;1000;508;511
6.037;1000;509;509
6.038;1000;510;514
6.039;1000;510;511
6.04;1000;507;511
6.041;1000;506;513
6.042;1000;503;512
6.043;1000;499;515
6.044;1000;497;513
6.045;1000;498;511
6.046;1000;500;513
6.047;1000;504;514
6.048;1000;507;513
6.049;1000;509;514
6.05;1000;512;513
6.051;1000;513;515
6.052;1000;512;516
6.053;1000;512;514
6.054;1000;514;518
6.055;1000;514;515
6.056;1000;512;516
6.057;1000;511;517
6.058;1000;510;519
6.059;1000;508;517
6.06;1000;506;514
6.061;1000;503;516
6.062;1000;503;517
6.063;1000;506;519
6.064;1000;509;516
6.065;1000;510;515
6.066;1000;510;518
6.067;1000;510;518
6.068;1000;509;518
6.069;1000;509;519
6.07;1000;513;517
6.071;1000;516;516
6.072;1000;518;521
6.073;1000;516;517
6.074;1000;513;519
6.075;1000;511;517
6.076;1000;512;518
6.077;1000;514;519
6.078;1000;515;521
6.079;1000;515;518
6.08;1000;516;517
6.081;1000;512;519
6.082;1000;510;519
6.083;1000;510;519
6.084;1000;511;519
6.085;1000;510;518
6.086;1000;508;518
6.087;1000;510;523
6.088;1000;510;519
6.089;1000;513;523
6.09;1000;515;518
6.091;1000;516;521
6.092;1000;518;521
6.093;1000;517;523
6.094;1000;514;521
6.095;1000;515;519
6.096;1000;514;521
6.097;1000;511;521
6.098;1000;510;521
6.099;1000;512;522
6.1;1000;512;519
6.101;1000;511;521
6.102;1000;510;522
6.103;1000;511;522
6.104;1000;515;521
6.105;1000;521;521
6.106;1000;526;524
6.107;1000;526;520
6.108;1000;525;523
6.109;1000;527;523
6.11;1000;530;520
6.111;1000;531;522
6.112;1000;531;523
6.113;1000;531;524
6.114;1000;529;521
6.115;1000;529;521
6.116;1000;527;523
6.117;1000;523;523
6.118;1000;523;523
6.119;1000;524;525
6.12;1000;523;521
6.121;1000;521;523
6.122;1000;519;523
6.123;1000;519;525
6.124;1000;516;523
6.125;1000;515;520
6.126;1000;516;522
6.127;1000;516;522
6.128;1000;517;524
6.129;1000;516;521
6.13;1000;518;519
6.131;1000;518;521
6.132;1000;518;522
6.133;1000;514;521
6.134;1000;512;525
6.135;1000;512;520
6.136;1000;509;520
6.137;1000;509;524
6.138;1000;510;519
6.139;1000;510;522
6.14;1000;508;519
6.141;1000;507;520
6.142;1000;504;521
6.143;1000;502;523
6.144;1000;503;520
6.145;1000;503;519
6.146;1000;504;519
6.147;1000;507;522
6.148;1000;510;519
6.149;1000;509;518
6.15;1000;508;519
6.151;1000;508;520
6.152;1000;509;520
6.153;1000;509;523
6.154;1000;507;520
6.155;1000;507;518
6.156;1000;507;519
6.157;1000;507;519
6.158;1000;508;518
6.159;1000;508;519
6.16;1000;506;516
6.161;1000;505;518
6.162;1000;504;518
6.163;1000;503;518
6.164;1000;504;517
6.165;1000;504;516
6.166;1000;508;519
6.167;1000;505;515
6.168;1000;503;519
6.169;1000;505;516
6.17;1000;507;514
6.171;1000;508;516
6.172;1000;508;515
6.173;1000;508;518
6.174;1000;509;516
6.175;1000;510;512
6.176;1000;511;515
6.177;1000;511;515
6.178;1000;510;515
6.179;1000;510;513
6.18;1000;507;512
6.181;1000;505;514
6.182;1000;503;512
6.183;1000;505;516
6.184;1000;506;513
6.185;1000;504;515
6.186;1000;500;514
6.187;1000;499;513
6.188;1000;502;515
6.189;1000;505;513
6.19;1000;506;510
6.191;1000;506;511
6.192;1000;506;513
6.193;1000;507;514
6.194;1000;508;512
6.195;1000;508;509
6.196;1000;507;511
6.197;1000;508;512
6.198;1000;507;511
6.199;1000;505;511
6.2;1000;505;509
6.201;1000;505;510
6.202;1000;504;514
6.203;1000;502;510
6.204;1000;502;513
6.205;1000;505;509
6.206;1000;507;509
6.207;1000;507;512
6.208;1000;508;511
6.209;1000;510;511
6.21;1000;513;509
6.211;1000;512;509
6.212;1000;512;512
6.213;1000;513;511
6.214;1000;512;513
6.215;1000;509;508
6.216;1000;506;511
6.217;1000;504;511
6.218;1000;503;513
6.219;1000;500;511
6.22;1000;495;508
6.221;1000;490;510
6.222;1000;486;510
6.223;1000;480;510
6.224;1000;478;510
6.225;1000;472;508
6.226;1000;467;509
6.227;1000;466;510
6.228;1000;466;509
6.229;1000;468;509
6.23;1000;475;509
6.231;1000;480;512
6.232;1000;483;507
6.233;1000;485;512
6.234;1000;490;510
6.235;1000;496;507
6.236;1000;503;509
6.237;1000;516;509
6.238;1000;528;512
6.239;1000;536;510
6.24;1000;544;507
6.241;1000;556;509
6.242;1000;568;507
6.243;1000;580;512
6.244;1000;598;510
6.245;1000;613;507
6.246;1000;632;507
6.247;1000;654;510
6.248;1000;670;508
6.249;1000;683;510
6.25;1000;695;508
6.251;1000;709;510
6.252;1000;723;509
6.253;1000;736;511
6.254;1000;750;508
6.255;1000;761;507
6.256;1000;772;509
6.257;1000;781;509
6.258;1000;785;509
6.259;1000;784;509
6.26;1000;780;507
6.261;1000;773;507
6.262;1000;761;511
6.263;1000;743;508
6.264;1000;720;511
6.265;1000;694;507
6.266;1000;664;509
6.267;1000;630;509
6.268;1000;598;511
6.269;1000;566;510
6.27;1000;540;507
6.271;1000;522;508
6.272;1000;507;509
6.273;1000;494;512
6.274;1000;485;509
6.275;1000;478;507
6.276;1000;472;509
6.277;1000;467;510
6.278;1000;464;509
6.279;1000;461;512
6.28;1000;460;509
6.281;1000;459;508
6.282;1000;457;513
6.283;1000;455;508
6.284;1000;454;511
6.285;1000;453;507
6.286;1000;452;510
6.287;1000;452;510
6.288;1000;452;512
6.289;1000;449;510
6.29;1000;449;507
6.291;1000;451;510
6.292;1000;454;507
6.293;1000;455;512
6.294;1000;455;512
6.295;1000;455;508
6.296;1000;455;509
6.297;1000;456;512
6.298;1000;458;509
6.299;1000;458;511
6.3;1000;460;508
6.301;1000;459;510
6.302;1000;458;511
6.303;1000;458;513
6.304;1000;459;510
6.305;1000;462;508
6.306;1000;463;509
6.307;1000;464;512
6.308;1000;466;512
6.309;1000;468;511
6.31;1000;469;510
6.311;1000;468;510
6.312;1000;467;512
6.313;1000;467;512
6.314;1000;466;514
6.315;1000;467;511
6.316;1000;466;512
6.317;1000;466;512
6.318;1000;466;514
6.319;1000;467;512
6.32;1000;466;511
6.321;1000;465;513
6.322;1000;465;513
6.323;1000;464;512
6.324;1000;466;512
6.325;1000;469;511
6.326;1000;473;511
6.327;1000;475;515
6.328;1000;478;511
6.329;1000;481;515
6.33;1000;482;510
6.331;1000;484;512
6.332;1000;481;512
6.333;1000;482;515
6.334;1000;483;514
6.335;1000;484;511
6.336;1000;485;513
6.337;1000;484;513
6.338;1000;483;512
6.339;1000;484;516
6.34;1000;485;512
6.341;1000;485;513
6.342;1000;483;511
6.343;1000;482;515
6.344;1000;483;515
6.345;1000;484;512
6.346;1000;487;514
6.347;1000;488;514
6.348;1000;489;516
6.349;1000;487;515
6.35;1000;487;512
