time;Sampling Frequency;ECG
0;100;473
0.01;100;479
0.02;100;482
0.03;100;484
0.04;100;489
0.05;100;492
0.06;100;496
0.07;100;497
0.08;100;499
0.09;100;496
0.1;100;500
0.11;100;496
0.12;100;501
0.13;100;501
0.14;100;509
0.15;100;506
0.16;100;510
0.17;100;510
0.18;100;511
0.19;100;508
0.2;100;514
0.21;100;511
0.22;100;518
0.23;100;511
0.24;100;512
0.25;100;518
0.26;100;515
0.27;100;508
0.28;100;511
0.29;100;506
0.3;100;509
0.31;100;499
0.32;100;511
0.33;100;509
0.34;100;510
0.35;100;499
0.36;100;515
0.37;100;513
0.38;100;508
0.39;100;499
0.4;100;496
0.41;100;500
0.42;100;506
0.43;100;501
0.44;100;507
0.45;100;503
0.46;100;510
0.47;100;506
0.48;100;499
0.49;100;481
0.5;100;562
0.51;100;667
0.52;100;710
0.53;100;529
0.54;100;474
0.55;100;463
0.56;100;473
0.57;100;474
0.58;100;489
0.59;100;484
0.6;100;490
0.61;100;487
0.62;100;499
0.63;100;499
0.64;100;505
0.65;100;504
0.66;100;509
0.67;100;510
0.68;100;510
0.69;100;522
0.7;100;520
0.71;100;527
0.72;100;540
0.73;100;541
0.74;100;544
0.75;100;555
0.76;100;553
0.77;100;546
0.78;100;540
0.79;100;517
0.8;100;494
0.81;100;469
0.82;100;455
0.83;100;446
0.84;100;449
0.85;100;448
0.86;100;454
0.87;100;460
0.88;100;465
0.89;100;471
0.9;100;469
0.91;100;480
0.92;100;489
0.93;100;489
0.94;100;487
0.95;100;492
0.96;100;502
0.97;100;499
0.98;100;501
0.99;100;492
1;100;505
1.01;100;498
1.02;100;507
1.03;100;505
1.04;100;506
1.05;100;506
1.06;100;507
1.07;100;503
1.08;100;503
1.09;100;510
1.1;100;511
1.11;100;508
1.12;100;512
1.13;100;511
1.14;100;509
1.15;100;497
1.16;100;514
1.17;100;512
1.18;100;504
1.19;100;503
1.2;100;505
1.21;100;507
1.22;100;504
1.23;100;505
1.24;100;511
1.25;100;506
1.26;100;502
1.27;100;513
1.28;100;523
1.29;100;520
1.3;100;516
1.31;100;508
1.32;100;508
1.33;100;506
1.34;100;511
1.35;100;509
1.36;100;507
1.37;100;509
1.38;100;516
1.39;100;491
1.4;100;504
1.41;100;608
1.42;100;691
1.43;100;635
1.44;100;471
1.45;100;466
1.46;100;462
1.47;100;472
1.48;100;478
1.49;100;480
1.5;100;480
1.51;100;487
1.52;100;489
1.53;100;494
1.54;100;506
1.55;100;501
1.56;100;511
1.57;100;511
1.58;100;508
1.59;100;512
1.6;100;519
1.61;100;525
1.62;100;531
1.63;100;543
1.64;100;551
1.65;100;553
1.66;100;555
1.67;100;554
1.68;100;544
1.69;100;529
1.7;100;512
1.71;100;489
1.72;100;472
1.73;100;457
1.74;100;449
1.75;100;453
1.76;100;460
1.77;100;464
1.78;100;466
1.79;100;481
1.8;100;479
1.81;100;490
1.82;100;488
1.83;100;493
1.84;100;494
1.85;100;491
1.86;100;493
1.87;100;495
1.88;100;495
1.89;100;503
1.9;100;500
1.91;100;498
1.92;100;497
1.93;100;501
1.94;100;487
1.95;100;496
1.96;100;509
1.97;100;503
1.98;100;509
1.99;100;502
2;100;501
2.01;100;502
2.02;100;496
2.03;100;504
2.04;100;511
2.05;100;510
2.06;100;510
2.07;100;506
2.08;100;502
2.09;100;507
2.1;100;515
2.11;100;509
2.12;100;511
2.13;100;512
2.14;100;516
2.15;100;519
2.16;100;522
2.17;100;526
2.18;100;528
2.19;100;519
2.2;100;512
2.21;100;501
2.22;100;511
2.23;100;506
2.24;100;505
2.25;100;509
2.26;100;512
2.27;100;513
2.28;100;509
2.29;100;483
2.3;100;556
2.31;100;653
2.32;100;687
2.33;100;512
2.34;100;470
2.35;100;452
2.36;100;483
2.37;100;479
2.38;100;487
2.39;100;484
2.4;100;487
2.41;100;495
2.42;100;493
2.43;100;496
2.44;100;500
2.45;100;499
2.46;100;515
2.47;100;515
2.48;100;521
2.49;100;525
2.5;100;529
2.51;100;535
2.52;100;546
2.53;100;548
2.54;100;552
2.55;100;562
2.56;100;571
2.57;100;556
2.58;100;544
2.59;100;526
2.6;100;501
2.61;100;478
2.62;100;472
2.63;100;445
2.64;100;450
2.65;100;451
2.66;100;454
2.67;100;462
2.68;100;472
2.69;100;462
2.7;100;479
2.71;100;477
2.72;100;480
2.73;100;482
2.74;100;487
2.75;100;485
2.76;100;488
2.77;100;488
2.78;100;499
2.79;100;495
2.8;100;495
2.81;100;490
2.82;100;504
2.83;100;494
2.84;100;497
2.85;100;502
2.86;100;503
2.87;100;502
2.88;100;514
2.89;100;505
2.9;100;508
2.91;100;508
2.92;100;508
2.93;100;507
2.94;100;518
2.95;100;512
2.96;100;519
2.97;100;512
2.98;100;520
2.99;100;516
3;100;512
3.01;100;512
3.02;100;521
3.03;100;511
3.04;100;516
3.05;100;519
3.06;100;520
3.07;100;508
3.08;100;512
3.09;100;506
3.1;100;500
3.11;100;500
3.12;100;499
3.13;100;506
3.14;100;506
3.15;100;496
3.16;100;492
3.17;100;489
3.18;100;568
3.19;100;658
3.2;100;671
3.21;100;482
3.22;100;465
3.23;100;466
3.24;100;476
3.25;100;483
3.26;100;487
3.27;100;487
3.28;100;497
3.29;100;496
3.3;100;499
3.31;100;504
3.32;100;507
3.33;100;508
3.34;100;514
3.35;100;509
3.36;100;524
3.37;100;520
3.38;100;534
3.39;100;539
3.4;100;547
3.41;100;553
3.42;100;559
3.43;100;569
3.44;100;563
3.45;100;561
3.46;100;546
3.47;100;524
3.48;100;509
3.49;100;488
3.5;100;469
3.51;100;452
3.52;100;455
3.53;100;455
3.54;100;467
3.55;100;468
3.56;100;471
3.57;100;470
3.58;100;475
3.59;100;480
3.6;100;486
3.61;100;485
3.62;100;483
3.63;100;494
3.64;100;501
3.65;100;495
3.66;100;495
3.67;100;493
3.68;100;502
3.69;100;495
3.7;100;498
3.71;100;501
3.72;100;509
3.73;100;503
3.74;100;506
3.75;100;502
3.76;100;504
3.77;100;512
3.78;100;512
3.79;100;505
3.8;100;511
3.81;100;508
3.82;100;512
3.83;100;515
3.84;100;512
3.85;100;511
3.86;100;516
3.87;100;511
3.88;100;517
3.89;100;519
3.9;100;526
3.91;100;518
3.92;100;513
3.93;100;513
3.94;100;516
3.95;100;510
3.96;100;513
3.97;100;516
3.98;100;515
3.99;100;522
4;100;495
4.01;100;496
4.02;100;596
4.03;100;679
4.04;100;648
4.05;100;466
4.06;100;468
4.07;100;466
4.08;100;484
4.09;100;482
4.1;100;492
4.11;100;493
4.12;100;500
4.13;100;498
4.14;100;502
4.15;100;504
4.16;100;510
4.17;100;507
4.18;100;508
4.19;100;507
4.2;100;526
4.21;100;524
4.22;100;532
4.23;100;528
4.24;100;545
4.25;100;540
4.26;100;552
4.27;100;555
4.28;100;552
4.29;100;545
4.3;100;538
4.31;100;510
4.32;100;494
4.33;100;465
4.34;100;459
4.35;100;447
4.36;100;443
4.37;100;452
4.38;100;464
4.39;100;462
4.4;100;469
4.41;100;474
4.42;100;479
4.43;100;483
4.44;100;487
4.45;100;483
4.46;100;487
4.47;100;489
4.48;100;501
4.49;100;494
4.5;100;498
4.51;100;500
4.52;100;500
4.53;100;497
4.54;100;504
4.55;100;505
4.56;100;505
4.57;100;511
4.58;100;505
4.59;100;505
4.6;100;509
4.61;100;513
4.62;100;508
4.63;100;496
4.64;100;516
4.65;100;511
4.66;100;516
4.67;100;521
4.68;100;526
4.69;100;517
4.7;100;526
4.71;100;535
4.72;100;531
4.73;100;523
4.74;100;511
4.75;100;514
4.76;100;515
4.77;100;512
4.78;100;521
4.79;100;511
4.8;100;514
4.81;100;502
4.82;100;492
4.83;100;544
4.84;100;648
4.85;100;688
4.86;100;527
4.87;100;467
4.88;100;464
4.89;100;472
4.9;100;485
4.91;100;479
4.92;100;496
4.93;100;499
4.94;100;504
4.95;100;499
4.96;100;499
4.97;100;506
4.98;100;507
4.99;100;516
5;100;517
5.01;100;513
5.02;100;521
5.03;100;534
5.04;100;536
5.05;100;546
5.06;100;563
5.07;100;554
5.08;100;566
5.09;100;560
5.1;100;554
5.11;100;537
5.12;100;525
5.13;100;496
5.14;100;480
5.15;100;460
5.16;100;451
5.17;100;440
5.18;100;453
5.19;100;447
5.2;100;466
5.21;100;463
5.22;100;478
5.23;100;475
5.24;100;481
5.25;100;486
5.26;100;496
5.27;100;493
5.28;100;501
5.29;100;497
5.3;100;504
5.31;100;503
5.32;100;513
5.33;100;497
5.34;100;507
5.35;100;508
5.36;100;494
5.37;100;510
5.38;100;507
5.39;100;502
5.4;100;508
5.41;100;509
5.42;100;508
5.43;100;505
5.44;100;517
5.45;100;508
5.46;100;516
5.47;100;517
5.48;100;519
5.49;100;515
5.5;100;516
5.51;100;527
5.52;100;530
5.53;100;520
5.54;100;516
5.55;100;512
5.56;100;515
5.57;100;509
5.58;100;512
5.59;100;513
5.6;100;515
5.61;100;513
5.62;100;497
5.63;100;499
5.64;100;574
5.65;100;677
5.66;100;676
5.67;100;481
5.68;100;478
5.69;100;482
5.7;100;486
5.71;100;491
5.72;100;496
5.73;100;497
5.74;100;496
5.75;100;493
5.76;100;508
5.77;100;501
5.78;100;504
5.79;100;507
5.8;100;516
5.81;100;516
5.82;100;531
5.83;100;530
5.84;100;540
5.85;100;545
5.86;100;552
5.87;100;559
5.88;100;560
5.89;100;570
5.9;100;551
5.91;100;553
5.92;100;544
5.93;100;514
5.94;100;501
5.95;100;474
5.96;100;466
5.97;100;451
5.98;100;459
5.99;100;455
6;100;465
6.01;100;469
6.02;100;475
6.03;100;479
6.04;100;482
6.05;100;486
6.06;100;488
6.07;100;486
6.08;100;494
6.09;100;490
6.1;100;502
6.11;100;496
6.12;100;506
6.13;100;503
6.14;100;498
6.15;100;500
6.16;100;500
6.17;100;508
6.18;100;514
6.19;100;502
6.2;100;513
6.21;100;512
6.22;100;517
6.23;100;515
6.24;100;517
6.25;100;515
6.26;100;515
6.27;100;518
6.28;100;531
6.29;100;530
6.3;100;519
6.31;100;505
6.32;100;502
6.33;100;503
6.34;100;507
6.35;100;504
6.36;100;509
6.37;100;500
6.38;100;508
6.39;100;493
6.4;100;490
6.41;100;556
6.42;100;659
6.43;100;685
6.44;100;482
6.45;100;463
6.46;100;471
6.47;100;470
6.48;100;484
6.49;100;496
6.5;100;494
6.51;100;491
6.52;100;499
6.53;100;498
6.54;100;505
6.55;100;510
6.56;100;512
6.57;100;515
6.58;100;521
6.59;100;524
6.6;100;531
6.61;100;525
6.62;100;550
6.63;100;557
6.64;100;559
6.65;100;567
6.66;100;574
6.67;100;563
6.68;100;556
6.69;100;539
6.7;100;519
6.71;100;486
6.72;100;462
6.73;100;457
6.74;100;449
6.75;100;443
6.76;100;455
6.77;100;454
6.78;100;462
6.79;100;459
6.8;100;470
6.81;100;477
6.82;100;475
6.83;100;495
6.84;100;491
6.85;100;487
6.86;100;488
6.87;100;492
6.88;100;489
6.89;100;484
6.9;100;493
6.91;100;504
6.92;100;504
6.93;100;504
6.94;100;504
6.95;100;502
6.96;100;500
6.97;100;502
6.98;100;503
6.99;100;505
7;100;505
7.01;100;497
7.02;100;504
7.03;100;512
7.04;100;510
7.05;100;511
7.06;100;516
7.07;100;517
7.08;100;511
7.09;100;494
7.1;100;497
7.11;100;498
7.12;100;499
7.13;100;496
7.14;100;498
7.15;100;493
7.16;100;503
7.17;100;490
7.18;100;479
7.19;100;544
7.2;100;659
7.21;100;688
7.22;100;507
7.23;100;458
7.24;100;464
7.25;100;463
7.26;100;475
7.27;100;481
7.28;100;477
7.29;100;492
7.3;100;500
7.31;100;494
7.32;100;500
7.33;100;504
7.34;100;503
7.35;100;503
7.36;100;509
7.37;100;525
7.38;100;520
7.39;100;524
7.4;100;532
7.41;100;544
7.42;100;552
7.43;100;552
7.44;100;555
7.45;100;558
7.46;100;550
7.47;100;528
7.48;100;512
7.49;100;490
7.5;100;467
7.51;100;449
7.52;100;448
7.53;100;438
7.54;100;456
7.55;100;459
7.56;100;465
7.57;100;464
7.58;100;480
7.59;100;483
7.6;100;480
7.61;100;494
7.62;100;493
7.63;100;491
7.64;100;497
7.65;100;496
7.66;100;493
7.67;100;507
7.68;100;493
7.69;100;500
7.7;100;502
7.71;100;503
7.72;100;500
7.73;100;499
7.74;100;506
7.75;100;500
7.76;100;504
7.77;100;503
7.78;100;506
7.79;100;511
7.8;100;521
7.81;100;513
7.82;100;522
7.83;100;515
7.84;100;523
7.85;100;517
7.86;100;529
7.87;100;521
7.88;100;520
7.89;100;507
7.9;100;511
7.91;100;507
7.92;100;505
7.93;100;507
7.94;100;510
7.95;100;515
7.96;100;512
7.97;100;494
7.98;100;496
7.99;100;587
8;100;688
8.01;100;666
8.02;100;478
8.03;100;469
8.04;100;474
8.05;100;480
8.06;100;494
8.07;100;487
8.08;100;494
8.09;100;497
8.1;100;507
8.11;100;499
8.12;100;511
8.13;100;510
8.14;100;512
8.15;100;516
8.16;100;516
8.17;100;523
8.18;100;533
8.19;100;547
8.2;100;548
8.21;100;551
8.22;100;557
8.23;100;562
8.24;100;568
8.25;100;564
8.26;100;553
8.27;100;536
8.28;100;515
8.29;100;497
8.3;100;475
8.31;100;468
8.32;100;453
8.33;100;449
8.34;100;454
8.35;100;456
8.36;100;467
8.37;100;466
8.38;100;475
8.39;100;479
8.4;100;493
8.41;100;493
8.42;100;497
8.43;100;499
8.44;100;501
8.45;100;502
8.46;100;509
8.47;100;507
8.48;100;513
8.49;100;504
8.5;100;505
8.51;100;506
8.52;100;511
8.53;100;505
8.54;100;508
8.55;100;502
8.56;100;503
8.57;100;509
8.58;100;512
8.59;100;511
8.6;100;516
8.61;100;511
8.62;100;509
8.63;100;514
8.64;100;517
8.65;100;508
8.66;100;525
8.67;100;524
8.68;100;520
8.69;100;523
8.7;100;531
8.71;100;517
8.72;100;524
8.73;100;513
8.74;100;508
8.75;100;504
8.76;100;509
8.77;100;511
8.78;100;513
8.79;100;511
8.8;100;509
8.81;100;501
8.82;100;488
8.83;100;555
8.84;100;665
8.85;100;686
8.86;100;494
8.87;100;462
8.88;100;465
8.89;100;470
8.9;100;481
8.91;100;474
8.92;100;482
8.93;100;483
8.94;100;489
8.95;100;487
8.96;100;488
8.97;100;496
8.98;100;504
8.99;100;500
9;100;510
9.01;100;507
9.02;100;514
9.03;100;519
9.04;100;524
9.05;100;528
9.06;100;544
9.07;100;544
9.08;100;553
9.09;100;546
9.1;100;548
9.11;100;531
9.12;100;510
9.13;100;490
9.14;100;471
9.15;100;449
9.16;100;454
9.17;100;446
9.18;100;451
9.19;100;455
9.2;100;465
9.21;100;471
9.22;100;473
9.23;100;485
9.24;100;489
9.25;100;483
9.26;100;492
9.27;100;483
9.28;100;494
9.29;100;498
9.3;100;497
9.31;100;495
9.32;100;499
9.33;100;492
9.34;100;505
9.35;100;497
9.36;100;496
9.37;100;491
9.38;100;504
9.39;100;502
9.4;100;496
9.41;100;500
9.42;100;500
9.43;100;500
9.44;100;505
9.45;100;501
9.46;100;492
9.47;100;513
9.48;100;509
9.49;100;506
9.5;100;508
9.51;100;510
9.52;100;511
9.53;100;514
9.54;100;527
9.55;100;521
9.56;100;527
9.57;100;521
9.58;100;520
9.59;100;504
9.6;100;504
9.61;100;504
9.62;100;506
9.63;100;501
9.64;100;514
9.65;100;513
9.66;100;513
9.67;100;508
9.68;100;483
9.69;100;530
9.7;100;649
9.71;100;705
9.72;100;553
9.73;100;469
9.74;100;463
9.75;100;470
9.76;100;478
9.77;100;481
9.78;100;488
9.79;100;489
9.8;100;486
9.81;100;497
9.82;100;501
9.83;100;502
9.84;100;503
9.85;100;511
9.86;100;514
9.87;100;515
9.88;100;520
9.89;100;527
9.9;100;537
9.91;100;538
9.92;100;543
9.93;100;560
9.94;100;564
9.95;100;560
9.96;100;563
9.97;100;546
9.98;100;527
9.99;100;502
10;100;485
10.01;100;462
10.02;100;455
10.03;100;452
10.04;100;447
10.05;100;459
10.06;100;461
10.07;100;463
10.08;100;472
10.09;100;479
10.1;100;480
10.11;100;486
10.12;100;491
10.13;100;489
10.14;100;492
10.15;100;497
10.16;100;503
10.17;100;502
10.18;100;504
10.19;100;497
10.2;100;502
10.21;100;495
10.22;100;496
10.23;100;502
10.24;100;504
10.25;100;499
10.26;100;499
10.27;100;514
10.28;100;508
10.29;100;512
10.3;100;511
10.31;100;507
10.32;100;506
10.33;100;508
10.34;100;509
10.35;100;513
10.36;100;507
10.37;100;510
10.38;100;519
10.39;100;506
10.4;100;509
10.41;100;507
10.42;100;511
10.43;100;505
10.44;100;503
10.45;100;519
10.46;100;507
10.47;100;512
10.48;100;524
10.49;100;510
10.5;100;500
10.51;100;497
10.52;100;499
10.53;100;499
10.54;100;502
10.55;100;501
10.56;100;506
10.57;100;500
10.58;100;503
10.59;100;487
10.6;100;497
10.61;100;595
10.62;100;686
10.63;100;637
10.64;100;473
10.65;100;461
10.66;100;464
10.67;100;469
10.68;100;485
10.69;100;484
10.7;100;488
10.71;100;494
10.72;100;500
10.73;100;501
10.74;100;516
10.75;100;505
10.76;100;514
10.77;100;512
10.78;100;518
10.79;100;516
10.8;100;528
10.81;100;541
10.82;100;544
10.83;100;553
10.84;100;557
10.85;100;561
10.86;100;561
10.87;100;557
10.88;100;554
10.89;100;533
10.9;100;515
10.91;100;496
10.92;100;472
10.93;100;442
10.94;100;460
10.95;100;447
10.96;100;452
10.97;100;460
10.98;100;459
10.99;100;477
11;100;472
11.01;100;478
11.02;100;488
11.03;100;484
11.04;100;486
11.05;100;485
11.06;100;490
11.07;100;491
11.08;100;490
11.09;100;496
11.1;100;499
11.11;100;503
11.12;100;504
11.13;100;500
11.14;100;508
11.15;100;505
11.16;100;500
11.17;100;511
11.18;100;507
11.19;100;511
11.2;100;504
11.21;100;507
11.22;100;514
11.23;100;512
11.24;100;512
11.25;100;514
11.26;100;513
11.27;100;512
11.28;100;509
11.29;100;516
11.3;100;508
11.31;100;501
11.32;100;511
11.33;100;509
11.34;100;515
11.35;100;507
11.36;100;508
11.37;100;510
11.38;100;519
11.39;100;513
11.4;100;512
11.41;100;516
11.42;100;524
11.43;100;510
11.44;100;509
11.45;100;497
11.46;100;511
11.47;100;501
11.48;100;509
11.49;100;505
11.5;100;503
11.51;100;514
11.52;100;504
11.53;100;484
11.54;100;552
11.55;100;651
11.56;100;703
11.57;100;526
11.58;100;468
11.59;100;468
11.6;100;474
11.61;100;476
11.62;100;483
11.63;100;490
11.64;100;488
11.65;100;494
11.66;100;515
11.67;100;498
11.68;100;505
11.69;100;512
11.7;100;517
11.71;100;509
11.72;100;523
11.73;100;525
11.74;100;532
11.75;100;536
11.76;100;551
11.77;100;558
11.78;100;559
11.79;100;563
11.8;100;561
11.81;100;558
11.82;100;554
11.83;100;531
11.84;100;505
11.85;100;488
11.86;100;462
11.87;100;460
11.88;100;445
11.89;100;458
11.9;100;457
11.91;100;461
11.92;100;463
11.93;100;481
11.94;100;483
11.95;100;473
11.96;100;484
11.97;100;491
11.98;100;491
11.99;100;492
12;100;501
12.01;100;498
12.02;100;500
12.03;100;501
12.04;100;499
12.05;100;499
12.06;100;500
12.07;100;507
12.08;100;502
12.09;100;505
12.1;100;509
12.11;100;504
12.12;100;513
12.13;100;505
12.14;100;513
12.15;100;505
12.16;100;516
12.17;100;513
12.18;100;510
12.19;100;508
12.2;100;512
12.21;100;499
12.22;100;513
12.23;100;507
12.24;100;514
12.25;100;508
12.26;100;504
12.27;100;507
12.28;100;510
12.29;100;506
12.3;100;510
12.31;100;514
12.32;100;507
12.33;100;524
12.34;100;524
12.35;100;514
12.36;100;509
12.37;100;501
12.38;100;502
12.39;100;505
12.4;100;508
12.41;100;503
12.42;100;508
12.43;100;510
12.44;100;504
12.45;100;479
12.46;100;512
12.47;100;623
12.48;100;690
12.49;100;591
12.5;100;460
12.51;100;464
12.52;100;464
12.53;100;470
12.54;100;480
12.55;100;486
12.56;100;494
12.57;100;500
12.58;100;500
12.59;100;502
12.6;100;501
12.61;100;516
12.62;100;512
12.63;100;513
12.64;100;523
12.65;100;515
12.66;100;521
12.67;100;527
12.68;100;542
12.69;100;543
12.7;100;558
12.71;100;560
12.72;100;562
12.73;100;560
12.74;100;547
12.75;100;524
12.76;100;512
12.77;100;487
12.78;100;471
12.79;100;452
12.8;100;447
12.81;100;450
12.82;100;454
12.83;100;453
12.84;100;463
12.85;100;462
12.86;100;472
12.87;100;475
12.88;100;487
12.89;100;489
12.9;100;485
12.91;100;499
12.92;100;501
12.93;100;495
12.94;100;488
12.95;100;506
12.96;100;496
12.97;100;501
12.98;100;503
12.99;100;501
13;100;506
13.01;100;501
13.02;100;505
13.03;100;503
13.04;100;500
13.05;100;503
13.06;100;514
13.07;100;504
13.08;100;513
13.09;100;508
13.1;100;516
13.11;100;516
13.12;100;510
13.13;100;500
13.14;100;517
13.15;100;510
13.16;100;511
13.17;100;510
13.18;100;514
13.19;100;515
13.2;100;512
13.21;100;509
13.22;100;514
13.23;100;517
13.24;100;520
13.25;100;512
13.26;100;523
13.27;100;523
13.28;100;516
13.29;100;506
13.3;100;507
13.31;100;506
13.32;100;515
13.33;100;506
13.34;100;508
13.35;100;506
13.36;100;510
13.37;100;499
13.38;100;482
13.39;100;565
13.4;100;674
13.41;100;689
13.42;100;501
13.43;100;463
13.44;100;458
13.45;100;468
13.46;100;477
13.47;100;474
13.48;100;486
13.49;100;487
13.5;100;496
13.51;100;499
13.52;100;504
13.53;100;504
13.54;100;513
13.55;100;512
13.56;100;507
13.57;100;527
13.58;100;526
13.59;100;536
13.6;100;540
13.61;100;553
13.62;100;559
13.63;100;564
13.64;100;564
13.65;100;569
13.66;100;560
13.67;100;549
13.68;100;527
13.69;100;505
13.7;100;483
13.71;100;461
13.72;100;446
13.73;100;448
13.74;100;450
13.75;100;444
13.76;100;463
13.77;100;463
13.78;100;467
13.79;100;478
13.8;100;483
13.81;100;481
13.82;100;491
13.83;100;489
13.84;100;500
13.85;100;494
13.86;100;496
13.87;100;498
13.88;100;498
13.89;100;496
13.9;100;504
13.91;100;499
13.92;100;501
13.93;100;502
13.94;100;506
13.95;100;499
13.96;100;505
13.97;100;506
13.98;100;509
13.99;100;515
14;100;509
14.01;100;523
14.02;100;521
14.03;100;515
14.04;100;510
14.05;100;512
14.06;100;517
14.07;100;522
14.08;100;516
14.09;100;509
14.1;100;521
14.11;100;513
14.12;100;521
14.13;100;511
14.14;100;514
14.15;100;513
14.16;100;521
14.17;100;517
14.18;100;518
14.19;100;515
14.2;100;520
14.21;100;518
14.22;100;510
14.23;100;500
14.24;100;496
14.25;100;510
14.26;100;503
14.27;100;499
14.28;100;508
14.29;100;503
14.3;100;485
14.31;100;479
14.32;100;562
14.33;100;664
14.34;100;679
14.35;100;496
14.36;100;468
14.37;100;464
14.38;100;471
14.39;100;474
14.4;100;477
14.41;100;485
14.42;100;497
14.43;100;496
14.44;100;498
14.45;100;498
14.46;100;504
14.47;100;507
14.48;100;516
14.49;100;511
14.5;100;518
14.51;100;523
14.52;100;528
14.53;100;534
14.54;100;544
14.55;100;550
14.56;100;551
14.57;100;564
14.58;100;557
14.59;100;551
14.6;100;556
14.61;100;532
14.62;100;505
14.63;100;481
14.64;100;466
14.65;100;455
14.66;100;456
14.67;100;453
14.68;100;458
14.69;100;458
14.7;100;465
14.71;100;467
14.72;100;478
14.73;100;480
14.74;100;481
14.75;100;480
14.76;100;494
14.77;100;495
14.78;100;495
14.79;100;500
14.8;100;494
14.81;100;507
14.82;100;503
14.83;100;505
14.84;100;507
14.85;100;504
14.86;100;513
14.87;100;508
14.88;100;512
14.89;100;514
14.9;100;518
14.91;100;514
14.92;100;513
14.93;100;512
14.94;100;512
14.95;100;513
14.96;100;518
14.97;100;518
14.98;100;519
14.99;100;510
15;100;514
15.01;100;512
15.02;100;514
15.03;100;512
15.04;100;517
15.05;100;512
15.06;100;515
15.07;100;516
15.08;100;519
15.09;100;514
15.1;100;521
15.11;100;523
15.12;100;524
15.13;100;534
15.14;100;511
15.15;100;513
15.16;100;512
15.17;100;505
15.18;100;505
15.19;100;505
15.2;100;506
15.21;100;501
15.22;100;503
15.23;100;483
15.24;100;507
15.25;100;615
15.26;100;687
15.27;100;601
15.28;100;468
15.29;100;462
15.3;100;460
15.31;100;471
15.32;100;476
15.33;100;483
15.34;100;494
15.35;100;494
15.36;100;499
15.37;100;494
15.38;100;513
15.39;100;507
15.4;100;510
15.41;100;509
15.42;100;515
15.43;100;518
15.44;100;536
15.45;100;535
15.46;100;540
15.47;100;543
15.48;100;551
15.49;100;571
15.5;100;563
15.51;100;564
15.52;100;560
15.53;100;539
15.54;100;513
15.55;100;488
15.56;100;470
15.57;100;450
15.58;100;443
15.59;100;445
15.6;100;442
15.61;100;450
15.62;100;457
15.63;100;459
15.64;100;465
15.65;100;473
15.66;100;477
15.67;100;478
15.68;100;487
15.69;100;494
15.7;100;490
15.71;100;489
15.72;100;498
15.73;100;495
15.74;100;501
15.75;100;497
15.76;100;510
15.77;100;506
15.78;100;505
15.79;100;503
15.8;100;506
15.81;100;503
15.82;100;504
15.83;100;504
15.84;100;501
15.85;100;515
15.86;100;508
15.87;100;511
15.88;100;510
15.89;100;510
15.9;100;514
15.91;100;509
15.92;100;518
15.93;100;514
15.94;100;504
15.95;100;504
15.96;100;505
15.97;100;510
15.98;100;508
15.99;100;515
16;100;513
16.01;100;513
16.02;100;521
16.03;100;525
16.04;100;513
16.05;100;507
16.06;100;492
16.07;100;499
16.08;100;508
16.09;100;499
16.1;100;508
16.11;100;508
16.12;100;501
16.13;100;483
16.14;100;523
16.15;100;631
16.16;100;692
16.17;100;561
16.18;100;457
16.19;100;463
16.2;100;461
16.21;100;470
16.22;100;484
16.23;100;491
16.24;100;487
16.25;100;489
16.26;100;500
16.27;100;506
16.28;100;509
16.29;100;505
16.3;100;515
16.31;100;510
16.32;100;518
16.33;100;527
16.34;100;528
16.35;100;523
16.36;100;547
16.37;100;556
16.38;100;561
16.39;100;566
16.4;100;566
16.41;100;558
16.42;100;553
16.43;100;534
16.44;100;512
16.45;100;485
16.46;100;470
16.47;100;447
16.48;100;440
16.49;100;443
16.5;100;454
16.51;100;455
16.52;100;457
16.53;100;459
16.54;100;463
16.55;100;464
16.56;100;466
16.57;100;487
16.58;100;484
16.59;100;484
16.6;100;488
16.61;100;492
16.62;100;497
16.63;100;497
16.64;100;495
16.65;100;492
16.66;100;500
16.67;100;489
16.68;100;500
16.69;100;495
16.7;100;504
16.71;100;503
16.72;100;505
16.73;100;503
16.74;100;510
16.75;100;504
16.76;100;512
16.77;100;508
16.78;100;514
16.79;100;514
16.8;100;510
16.81;100;510
16.82;100;518
16.83;100;516
16.84;100;516
16.85;100;513
16.86;100;516
16.87;100;514
16.88;100;516
16.89;100;526
16.9;100;524
16.91;100;511
16.92;100;515
16.93;100;503
16.94;100;511
16.95;100;503
16.96;100;504
16.97;100;499
16.98;100;502
16.99;100;493
17;100;484
17.01;100;524
17.02;100;631
17.03;100;691
17.04;100;575
17.05;100;468
17.06;100;467
17.07;100;467
17.08;100;479
17.09;100;477
17.1;100;481
17.11;100;487
17.12;100;500
17.13;100;499
17.14;100;499
17.15;100;502
17.16;100;510
17.17;100;511
17.18;100;515
17.19;100;512
17.2;100;519
17.21;100;531
17.22;100;534
17.23;100;548
17.24;100;553
17.25;100;553
17.26;100;561
17.27;100;562
17.28;100;562
17.29;100;540
17.3;100;529
17.31;100;514
17.32;100;483
17.33;100;461
17.34;100;452
17.35;100;447
17.36;100;452
17.37;100;451
17.38;100;455
17.39;100;462
17.4;100;467
17.41;100;473
17.42;100;482
17.43;100;486
17.44;100;483
17.45;100;489
17.46;100;494
17.47;100;496
17.48;100;497
17.49;100;502
17.5;100;509
17.51;100;503
17.52;100;499
17.53;100;501
17.54;100;497
17.55;100;492
17.56;100;507
17.57;100;503
17.58;100;498
17.59;100;502
17.6;100;502
17.61;100;491
17.62;100;507
17.63;100;510
17.64;100;503
17.65;100;509
17.66;100;513
17.67;100;511
17.68;100;510
17.69;100;508
17.7;100;512
17.71;100;510
17.72;100;521
17.73;100;512
17.74;100;512
17.75;100;514
17.76;100;522
17.77;100;515
17.78;100;509
17.79;100;498
17.8;100;507
17.81;100;503
17.82;100;504
17.83;100;506
17.84;100;512
17.85;100;504
17.86;100;505
17.87;100;499
17.88;100;578
17.89;100;678
17.9;100;687
17.91;100;483
17.92;100;463
17.93;100;467
17.94;100;478
17.95;100;472
17.96;100;489
17.97;100;489
17.98;100;499
17.99;100;493
18;100;499
18.01;100;495
18.02;100;511
18.03;100;505
18.04;100;510
18.05;100;517
18.06;100;527
18.07;100;527
18.08;100;528
18.09;100;541
18.1;100;554
18.11;100;555
18.12;100;560
18.13;100;561
18.14;100;564
18.15;100;556
18.16;100;548
18.17;100;527
18.18;100;498
18.19;100;483
18.2;100;461
18.21;100;456
18.22;100;451
18.23;100;447
18.24;100;454
18.25;100;460
18.26;100;469
18.27;100;471
18.28;100;480
18.29;100;484
18.3;100;487
18.31;100;494
18.32;100;492
18.33;100;501
18.34;100;506
18.35;100;505
18.36;100;504
18.37;100;503
18.38;100;504
18.39;100;507
18.4;100;509
18.41;100;509
18.42;100;508
18.43;100;502
18.44;100;505
18.45;100;501
18.46;100;503
18.47;100;499
18.48;100;501
18.49;100;503
18.5;100;509
18.51;100;510
18.52;100;508
18.53;100;509
18.54;100;516
18.55;100;514
18.56;100;515
18.57;100;504
18.58;100;507
18.59;100;503
18.6;100;504
18.61;100;505
18.62;100;507
18.63;100;506
18.64;100;509
18.65;100;503
18.66;100;486
18.67;100;539
18.68;100;643
18.69;100;695
18.7;100;508
18.71;100;453
18.72;100;479
18.73;100;469
18.74;100;481
18.75;100;481
18.76;100;488
18.77;100;494
18.78;100;496
18.79;100;500
18.8;100;508
18.81;100;506
18.82;100;511
18.83;100;527
18.84;100;523
18.85;100;525
18.86;100;535
18.87;100;537
18.88;100;542
18.89;100;553
18.9;100;568
18.91;100;567
18.92;100;577
18.93;100;574
18.94;100;568
18.95;100;554
18.96;100;533
18.97;100;497
18.98;100;468
18.99;100;450
19;100;445
19.01;100;436
19.02;100;447
19.03;100;446
19.04;100;455
19.05;100;463
19.06;100;461
19.07;100;463
19.08;100;472
19.09;100;484
19.1;100;485
19.11;100;488
19.12;100;496
19.13;100;491
19.14;100;489
19.15;100;499
19.16;100;499
19.17;100;504
19.18;100;497
19.19;100;497
19.2;100;502
19.21;100;510
19.22;100;508
19.23;100;497
19.24;100;509
19.25;100;504
19.26;100;513
19.27;100;507
19.28;100;516
19.29;100;518
19.3;100;523
19.31;100;513
19.32;100;511
19.33;100;499
19.34;100;502
19.35;100;499
19.36;100;504
19.37;100;492
19.38;100;511
19.39;100;509
19.4;100;508
19.41;100;513
19.42;100;508
19.43;100;480
19.44;100;526
19.45;100;644
19.46;100;711
19.47;100;568
19.48;100;470
19.49;100;483
19.5;100;474
19.51;100;485
19.52;100;492
19.53;100;486
19.54;100;502
19.55;100;499
19.56;100;504
19.57;100;506
19.58;100;509
19.59;100;508
19.6;100;518
19.61;100;518
19.62;100;532
19.63;100;523
19.64;100;531
19.65;100;534
19.66;100;541
19.67;100;547
19.68;100;558
19.69;100;562
19.7;100;572
19.71;100;562
19.72;100;553
19.73;100;534
19.74;100;504
19.75;100;480
19.76;100;461
19.77;100;452
19.78;100;453
19.79;100;460
19.8;100;457
19.81;100;452
19.82;100;470
19.83;100;468
19.84;100;483
19.85;100;481
19.86;100;483
19.87;100;488
19.88;100;492
19.89;100;502
19.9;100;497
19.91;100;498
19.92;100;502
19.93;100;505
19.94;100;498
19.95;100;497
19.96;100;510
19.97;100;501
19.98;100;501
19.99;100;500
20;100;505
20.01;100;509
20.02;100;510
20.03;100;507
20.04;100;509
20.05;100;506
20.06;100;507
20.07;100;499
20.08;100;510
20.09;100;505
20.1;100;514
20.11;100;511
20.12;100;520
20.13;100;516
20.14;100;513
20.15;100;518
20.16;100;513
20.17;100;509
20.18;100;502
20.19;100;512
20.2;100;510
20.21;100;508
20.22;100;511
20.23;100;506
20.24;100;510
20.25;100;508
20.26;100;503
20.27;100;485
20.28;100;566
20.29;100;682
20.3;100;718
20.31;100;549
20.32;100;473
20.33;100;467
20.34;100;462
20.35;100;483
20.36;100;485
20.37;100;481
20.38;100;487
20.39;100;494
20.4;100;493
20.41;100;501
20.42;100;502
20.43;100;511
20.44;100;509
20.45;100;513
20.46;100;519
20.47;100;519
20.48;100;536
20.49;100;542
20.5;100;551
20.51;100;550
20.52;100;555
20.53;100;563
20.54;100;561
20.55;100;555
20.56;100;540
20.57;100;533
20.58;100;495
20.59;100;476
20.6;100;457
20.61;100;442
20.62;100;440
20.63;100;443
20.64;100;451
20.65;100;454
20.66;100;464
20.67;100;465
20.68;100;472
20.69;100;486
20.7;100;481
20.71;100;479
20.72;100;490
20.73;100;487
20.74;100;495
20.75;100;496
20.76;100;495
20.77;100;504
20.78;100;508
20.79;100;511
20.8;100;505
20.81;100;501
20.82;100;504
20.83;100;503
20.84;100;503
20.85;100;505
20.86;100;506
20.87;100;505
20.88;100;508
20.89;100;503
20.9;100;503
20.91;100;505
20.92;100;504
20.93;100;503
20.94;100;509
20.95;100;505
20.96;100;511
20.97;100;508
20.98;100;507
20.99;100;513
21;100;513
21.01;100;507
21.02;100;514
21.03;100;509
21.04;100;506
21.05;100;516
21.06;100;524
21.07;100;512
21.08;100;521
21.09;100;513
21.1;100;518
21.11;100;512
21.12;100;516
21.13;100;518
21.14;100;511
21.15;100;510
21.16;100;511
21.17;100;513
21.18;100;510
21.19;100;520
21.2;100;511
21.21;100;519
21.22;100;522
21.23;100;502
21.24;100;517
21.25;100;513
21.26;100;509
21.27;100;514
21.28;100;500
21.29;100;496
21.3;100;505
21.31;100;502
21.32;100;506
21.33;100;498
21.34;100;505
21.35;100;503
21.36;100;496
21.37;100;506
21.38;100;481
21.39;100;546
21.4;100;671
21.41;100;717
21.42;100;540
21.43;100;458
21.44;100;446
21.45;100;450
21.46;100;467
21.47;100;469
21.48;100;483
21.49;100;473
21.5;100;486
21.51;100;484
21.52;100;487
21.53;100;487
21.54;100;494
21.55;100;503
21.56;100;507
21.57;100;511
21.58;100;519
21.59;100;517
21.6;100;529
21.61;100;532
21.62;100;543
21.63;100;547
21.64;100;559
21.65;100;564
21.66;100;559
21.67;100;550
21.68;100;528
21.69;100;513
21.7;100;487
21.71;100;460
21.72;100;451
21.73;100;448
21.74;100;447
21.75;100;452
21.76;100;456
21.77;100;454
21.78;100;470
21.79;100;480
21.8;100;481
21.81;100;479
21.82;100;489
21.83;100;485
21.84;100;495
21.85;100;498
21.86;100;496
21.87;100;500
21.88;100;511
21.89;100;506
21.9;100;507
21.91;100;502
21.92;100;509
21.93;100;500
21.94;100;512
21.95;100;498
21.96;100;512
21.97;100;502
21.98;100;504
21.99;100;500
22;100;499
22.01;100;505
22.02;100;505
22.03;100;503
22.04;100;503
22.05;100;510
22.06;100;508
22.07;100;505
22.08;100;503
22.09;100;507
22.1;100;517
22.11;100;506
22.12;100;512
22.13;100;507
22.14;100;510
22.15;100;504
22.16;100;515
22.17;100;506
22.18;100;513
22.19;100;517
22.2;100;515
22.21;100;512
22.22;100;519
22.23;100;518
22.24;100;513
22.25;100;522
22.26;100;529
22.27;100;520
22.28;100;519
22.29;100;531
22.3;100;529
22.31;100;514
22.32;100;509
22.33;100;504
22.34;100;501
22.35;100;505
22.36;100;504
22.37;100;506
22.38;100;506
22.39;100;508
22.4;100;509
22.41;100;504
22.42;100;496
22.43;100;486
22.44;100;575
22.45;100;684
22.46;100;711
22.47;100;505
22.48;100;470
22.49;100;460
22.5;100;461
22.51;100;472
22.52;100;476
22.53;100;480
22.54;100;491
22.55;100;490
22.56;100;499
22.57;100;494
22.58;100;509
22.59;100;502
22.6;100;504
22.61;100;508
22.62;100;514
22.63;100;515
22.64;100;524
22.65;100;532
22.66;100;545
22.67;100;546
22.68;100;565
22.69;100;567
22.7;100;571
22.71;100;556
22.72;100;554
22.73;100;529
22.74;100;507
22.75;100;475
22.76;100;467
22.77;100;449
22.78;100;443
22.79;100;440
22.8;100;448
22.81;100;440
22.82;100;452
22.83;100;457
22.84;100;458
22.85;100;466
22.86;100;477
22.87;100;482
22.88;100;485
22.89;100;494
22.9;100;492
22.91;100;493
22.92;100;494
22.93;100;500
22.94;100;494
22.95;100;498
22.96;100;497
22.97;100;507
22.98;100;507
22.99;100;506
23;100;509
23.01;100;509
23.02;100;507
23.03;100;508
23.04;100;511
23.05;100;515
23.06;100;507
23.07;100;511
23.08;100;514
23.09;100;504
23.1;100;518
23.11;100;507
23.12;100;511
23.13;100;510
23.14;100;511
23.15;100;515
23.16;100;520
23.17;100;510
23.18;100;517
23.19;100;510
23.2;100;515
23.21;100;514
23.22;100;512
23.23;100;518
23.24;100;511
23.25;100;502
23.26;100;515
23.27;100;509
23.28;100;503
23.29;100;504
23.3;100;503
23.31;100;502
23.32;100;502
23.33;100;503
23.34;100;508
23.35;100;515
23.36;100;513
23.37;100;503
23.38;100;492
23.39;100;499
23.4;100;495
23.41;100;505
23.42;100;504
23.43;100;501
23.44;100;513
23.45;100;505
23.46;100;493
23.47;100;493
23.48;100;577
23.49;100;679
23.5;100;708
23.51;100;510
23.52;100;454
23.53;100;459
23.54;100;465
23.55;100;468
23.56;100;471
23.57;100;483
23.58;100;492
23.59;100;484
23.6;100;488
23.61;100;493
23.62;100;500
23.63;100;507
23.64;100;504
23.65;100;514
23.66;100;524
23.67;100;529
23.68;100;535
23.69;100;538
23.7;100;547
23.71;100;559
23.72;100;566
23.73;100;568
23.74;100;571
23.75;100;566
23.76;100;555
23.77;100;536
23.78;100;512
23.79;100;497
23.8;100;468
23.81;100;454
23.82;100;448
23.83;100;448
23.84;100;452
23.85;100;452
23.86;100;462
23.87;100;465
23.88;100;464
23.89;100;481
23.9;100;477
23.91;100;481
23.92;100;485
23.93;100;487
23.94;100;492
23.95;100;492
23.96;100;494
23.97;100;503
23.98;100;501
23.99;100;512
24;100;514
24.01;100;509
24.02;100;505
24.03;100;502
24.04;100;508
24.05;100;503
24.06;100;508
24.07;100;504
24.08;100;511
24.09;100;499
24.1;100;519
24.11;100;514
24.12;100;511
24.13;100;510
24.14;100;511
24.15;100;514
24.16;100;512
24.17;100;514
24.18;100;515
24.19;100;515
24.2;100;521
24.21;100;521
24.22;100;519
24.23;100;516
24.24;100;515
24.25;100;519
24.26;100;517
24.27;100;514
24.28;100;512
24.29;100;517
24.3;100;517
24.31;100;515
24.32;100;523
24.33;100;526
24.34;100;519
24.35;100;503
24.36;100;501
24.37;100;501
24.38;100;496
24.39;100;516
24.4;100;509
24.41;100;506
24.42;100;508
24.43;100;502
24.44;100;492
24.45;100;490
24.46;100;580
24.47;100;679
24.48;100;661
24.49;100;460
24.5;100;476
24.51;100;471
24.52;100;483
24.53;100;481
24.54;100;486
24.55;100;487
24.56;100;501
24.57;100;498
24.58;100;503
24.59;100;499
24.6;100;511
24.61;100;509
24.62;100;514
24.63;100;522
24.64;100;528
24.65;100;529
24.66;100;534
24.67;100;536
24.68;100;554
24.69;100;556
24.7;100;566
24.71;100;568
24.72;100;563
24.73;100;558
24.74;100;549
24.75;100;523
24.76;100;497
24.77;100;468
24.78;100;454
24.79;100;435
24.8;100;438
24.81;100;445
24.82;100;446
24.83;100;450
24.84;100;454
24.85;100;462
24.86;100;470
24.87;100;478
24.88;100;490
24.89;100;489
24.9;100;489
24.91;100;491
24.92;100;494
24.93;100;499
24.94;100;499
24.95;100;495
24.96;100;498
24.97;100;504
24.98;100;510
24.99;100;502
25;100;502
25.01;100;499
25.02;100;510
25.03;100;509
25.04;100;511
25.05;100;504
25.06;100;513
25.07;100;515
25.08;100;508
25.09;100;512
25.1;100;514
25.11;100;513
25.12;100;518
25.13;100;513
25.14;100;521
25.15;100;519
25.16;100;510
25.17;100;524
25.18;100;520
25.19;100;512
25.2;100;496
25.21;100;500
25.22;100;505
25.23;100;496
25.24;100;495
25.25;100;499
25.26;100;495
25.27;100;495
25.28;100;498
25.29;100;484
25.3;100;565
25.31;100;674
25.32;100;692
25.33;100;487
25.34;100;468
25.35;100;467
25.36;100;467
25.37;100;482
25.38;100;481
25.39;100;484
25.4;100;494
25.41;100;495
25.42;100;491
25.43;100;497
25.44;100;497
25.45;100;499
25.46;100;504
25.47;100;505
25.48;100;513
25.49;100;516
25.5;100;523
25.51;100;532
25.52;100;540
25.53;100;551
25.54;100;555
25.55;100;568
25.56;100;571
25.57;100;561
25.58;100;554
25.59;100;536
25.6;100;504
25.61;100;485
25.62;100;466
25.63;100;449
25.64;100;450
25.65;100;450
25.66;100;454
25.67;100;459
25.68;100;468
25.69;100;475
25.7;100;480
25.71;100;480
25.72;100;488
25.73;100;494
25.74;100;496
25.75;100;500
25.76;100;502
25.77;100;502
25.78;100;516
25.79;100;513
25.8;100;509
25.81;100;512
25.82;100;507
25.83;100;506
25.84;100;502
25.85;100;504
25.86;100;506
25.87;100;504
25.88;100;510
25.89;100;503
25.9;100;508
25.91;100;502
25.92;100;502
25.93;100;505
25.94;100;508
25.95;100;508
25.96;100;510
25.97;100;516
25.98;100;516
25.99;100;516
26;100;512
26.01;100;517
26.02;100;526
26.03;100;526
26.04;100;510
26.05;100;534
26.06;100;537
26.07;100;523
26.08;100;519
26.09;100;508
26.1;100;511
26.11;100;510
26.12;100;513
26.13;100;512
26.14;100;510
26.15;100;519
26.16;100;509
26.17;100;480
26.18;100;533
26.19;100;648
26.2;100;711
26.21;100;597
26.22;100;466
26.23;100;449
26.24;100;471
26.25;100;471
26.26;100;476
26.27;100;470
26.28;100;478
26.29;100;478
26.3;100;484
26.31;100;491
26.32;100;494
26.33;100;501
26.34;100;497
26.35;100;505
26.36;100;507
26.37;100;505
26.38;100;522
26.39;100;525
26.4;100;536
26.41;100;546
26.42;100;557
26.43;100;564
26.44;100;574
26.45;100;566
26.46;100;567
26.47;100;545
26.48;100;526
26.49;100;499
26.5;100;476
26.51;100;464
26.52;100;449
26.53;100;459
26.54;100;460
26.55;100;460
26.56;100;467
26.57;100;465
26.58;100;470
26.59;100;471
26.6;100;483
26.61;100;481
26.62;100;492
26.63;100;487
26.64;100;496
26.65;100;492
26.66;100;494
26.67;100;495
26.68;100;499
26.69;100;499
26.7;100;494
26.71;100;495
26.72;100;512
26.73;100;508
26.74;100;505
26.75;100;506
26.76;100;506
26.77;100;510
26.78;100;511
26.79;100;510
26.8;100;517
26.81;100;513
26.82;100;514
26.83;100;506
26.84;100;513
26.85;100;519
26.86;100;519
26.87;100;506
26.88;100;511
26.89;100;515
26.9;100;512
26.91;100;510
26.92;100;512
26.93;100;506
26.94;100;509
26.95;100;507
26.96;100;505
26.97;100;506
26.98;100;506
26.99;100;505
27;100;478
27.01;100;501
27.02;100;600
27.03;100;695
27.04;100;660
27.05;100;478
27.06;100;460
27.07;100;458
27.08;100;465
27.09;100;466
27.1;100;468
27.11;100;490
27.12;100;495
27.13;100;489
27.14;100;491
27.15;100;499
27.16;100;500
27.17;100;506
27.18;100;513
27.19;100;513
27.2;100;520
27.21;100;528
27.22;100;531
27.23;100;535
27.24;100;555
27.25;100;548
27.26;100;567
27.27;100;566
27.28;100;568
27.29;100;558
27.3;100;540
27.31;100;522
27.32;100;494
27.33;100;471
27.34;100;451
27.35;100;443
27.36;100;446
27.37;100;453
27.38;100;456
27.39;100;463
27.4;100;467
27.41;100;471
27.42;100;476
27.43;100;475
27.44;100;477
27.45;100;480
27.46;100;482
27.47;100;489
27.48;100;494
27.49;100;492
27.5;100;496
27.51;100;502
27.52;100;504
27.53;100;505
27.54;100;505
27.55;100;507
27.56;100;507
27.57;100;505
27.58;100;507
27.59;100;516
27.6;100;505
27.61;100;514
27.62;100;510
27.63;100;516
27.64;100;525
27.65;100;513
27.66;100;513
27.67;100;506
27.68;100;504
27.69;100;507
27.7;100;509
27.71;100;508
27.72;100;512
27.73;100;508
27.74;100;508
27.75;100;496
27.76;100;485
27.77;100;560
27.78;100;677
27.79;100;715
27.8;100;517
27.81;100;462
27.82;100;461
27.83;100;469
27.84;100;469
27.85;100;476
27.86;100;479
27.87;100;487
27.88;100;497
27.89;100;496
27.9;100;497
27.91;100;506
27.92;100;509
27.93;100;512
27.94;100;515
27.95;100;510
27.96;100;522
27.97;100;526
27.98;100;541
27.99;100;546
28;100;563
28.01;100;565
28.02;100;564
28.03;100;560
28.04;100;561
28.05;100;541
28.06;100;519
28.07;100;492
28.08;100;473
28.09;100;454
28.1;100;446
28.11;100;439
28.12;100;446
28.13;100;454
28.14;100;464
28.15;100;464
28.16;100;468
28.17;100;473
28.18;100;482
28.19;100;483
28.2;100;495
28.21;100;494
28.22;100;494
28.23;100;496
28.24;100;503
28.25;100;495
28.26;100;513
28.27;100;506
28.28;100;504
28.29;100;504
28.3;100;515
28.31;100;516
28.32;100;518
28.33;100;523
28.34;100;525
28.35;100;527
28.36;100;516
28.37;100;506
28.38;100;507
28.39;100;506
28.4;100;517
28.41;100;513
28.42;100;519
28.43;100;515
28.44;100;515
28.45;100;516
28.46;100;509
28.47;100;495
28.48;100;562
28.49;100;668
28.5;100;694
28.51;100;479
28.52;100;463
28.53;100;472
28.54;100;475
28.55;100;478
28.56;100;487
28.57;100;488
28.58;100;492
28.59;100;495
28.6;100;498
28.61;100;503
28.62;100;498
28.63;100;509
28.64;100;508
28.65;100;516
28.66;100;515
28.67;100;519
28.68;100;531
28.69;100;542
28.7;100;554
28.71;100;554
28.72;100;563
28.73;100;563
28.74;100;563
28.75;100;550
28.76;100;540
28.77;100;505
28.78;100;481
28.79;100;461
28.8;100;446
28.81;100;447
28.82;100;444
28.83;100;450
28.84;100;457
28.85;100;457
28.86;100;464
28.87;100;475
28.88;100;482
28.89;100;491
28.9;100;494
28.91;100;499
28.92;100;495
28.93;100;496
28.94;100;505
28.95;100;498
28.96;100;504
28.97;100;505
28.98;100;512
28.99;100;508
29;100;501
29.01;100;507
29.02;100;509
29.03;100;507
29.04;100;505
29.05;100;515
29.06;100;511
29.07;100;507
29.08;100;497
29.09;100;495
29.1;100;504
29.11;100;500
29.12;100;503
29.13;100;503
29.14;100;509
29.15;100;505
29.16;100;505
29.17;100;504
29.18;100;481
29.19;100;537
29.2;100;644
29.21;100;705
29.22;100;522
29.23;100;465
29.24;100;483
29.25;100;477
29.26;100;486
29.27;100;488
29.28;100;493
29.29;100;494
29.3;100;498
29.31;100;498
29.32;100;493
29.33;100;505
29.34;100;511
29.35;100;510
29.36;100;508
29.37;100;513
29.38;100;517
29.39;100;527
29.4;100;532
29.41;100;543
29.42;100;550
29.43;100;556
29.44;100;566
29.45;100;566
29.46;100;564
29.47;100;541
29.48;100;521
29.49;100;493
29.5;100;477
29.51;100;464
29.52;100;456
29.53;100;459
29.54;100;459
29.55;100;460
29.56;100;473
29.57;100;469
29.58;100;480
29.59;100;479
29.6;100;487
29.61;100;491
29.62;100;494
29.63;100;494
29.64;100;506
29.65;100;498
29.66;100;508
29.67;100;503
29.68;100;504
29.69;100;507
29.7;100;508
29.71;100;508
29.72;100;507
29.73;100;503
29.74;100;509
29.75;100;515
29.76;100;510
29.77;100;507
29.78;100;513
29.79;100;511
29.8;100;508
29.81;100;495
29.82;100;500
29.83;100;494
29.84;100;497
29.85;100;502
29.86;100;500
29.87;100;499
29.88;100;503
29.89;100;501
29.9;100;499
29.91;100;475
29.92;100;499
29.93;100;614
29.94;100;699
29.95;100;622
29.96;100;479
29.97;100;473
29.98;100;459
29.99;100;465
30;100;470
30.01;100;480
30.02;100;481
30.03;100;486
30.04;100;497
30.05;100;497
30.06;100;496
30.07;100;510
30.08;100;508
30.09;100;504
30.1;100;515
30.11;100;517
30.12;100;525
30.13;100;532
30.14;100;544
30.15;100;548
30.16;100;557
30.17;100;559
30.18;100;563
30.19;100;566
30.2;100;557
30.21;100;536
30.22;100;511
30.23;100;487
30.24;100;464
30.25;100;455
30.26;100;469
30.27;100;461
30.28;100;466
30.29;100;468
30.3;100;472
30.31;100;476
30.32;100;481
30.33;100;482
30.34;100;488
30.35;100;489
30.36;100;504
30.37;100;495
30.38;100;501
30.39;100;503
30.4;100;507
30.41;100;505
30.42;100;503
30.43;100;505
30.44;100;509
30.45;100;508
30.46;100;507
30.47;100;508
30.48;100;504
30.49;100;511
30.5;100;505
30.51;100;506
30.52;100;510
30.53;100;509
30.54;100;507
30.55;100;507
30.56;100;512
30.57;100;509
30.58;100;520
30.59;100;519
30.6;100;522
30.61;100;518
30.62;100;524
30.63;100;520
30.64;100;530
30.65;100;520
30.66;100;515
30.67;100;508
30.68;100;511
30.69;100;510
30.7;100;517
30.71;100;512
30.72;100;508
30.73;100;511
30.74;100;513
30.75;100;510
30.76;100;507
30.77;100;492
30.78;100;499
30.79;100;601
30.8;100;704
30.81;100;689
30.82;100;501
30.83;100;462
30.84;100;454
30.85;100;465
30.86;100;479
30.87;100;478
30.88;100;485
30.89;100;492
30.9;100;497
30.91;100;494
30.92;100;503
30.93;100;497
30.94;100;504
30.95;100;508
30.96;100;513
30.97;100;517
30.98;100;525
30.99;100;526
31;100;534
31.01;100;543
31.02;100;547
31.03;100;553
31.04;100;567
31.05;100;563
31.06;100;552
31.07;100;534
31.08;100;519
31.09;100;491
31.1;100;473
31.11;100;459
31.12;100;457
31.13;100;451
31.14;100;453
31.15;100;455
31.16;100;464
31.17;100;472
31.18;100;466
31.19;100;470
31.2;100;477
31.21;100;478
31.22;100;487
31.23;100;484
31.24;100;488
31.25;100;489
31.26;100;496
31.27;100;491
31.28;100;496
31.29;100;504
31.3;100;501
31.31;100;504
31.32;100;509
31.33;100;512
31.34;100;508
31.35;100;503
31.36;100;514
31.37;100;513
31.38;100;512
31.39;100;511
31.4;100;512
31.41;100;511
31.42;100;510
31.43;100;514
31.44;100;515
31.45;100;516
31.46;100;511
31.47;100;508
31.48;100;513
31.49;100;512
31.5;100;513
31.51;100;507
31.52;100;509
31.53;100;512
31.54;100;507
31.55;100;510
31.56;100;514
31.57;100;504
31.58;100;511
31.59;100;505
31.6;100;500
31.61;100;508
31.62;100;505
31.63;100;509
31.64;100;507
31.65;100;514
31.66;100;512
31.67;100;513
31.68;100;526
31.69;100;529
31.7;100;526
31.71;100;511
31.72;100;511
31.73;100;506
31.74;100;512
31.75;100;503
31.76;100;511
31.77;100;511
31.78;100;504
31.79;100;504
31.8;100;498
31.81;100;501
31.82;100;494
31.83;100;488
31.84;100;572
31.85;100;680
31.86;100;704
31.87;100;509
31.88;100;457
31.89;100;449
31.9;100;463
31.91;100;469
31.92;100;482
31.93;100;487
31.94;100;482
31.95;100;490
31.96;100;496
31.97;100;500
31.98;100;499
31.99;100;504
32;100;514
32.01;100;511
32.02;100;519
32.03;100;522
32.04;100;524
32.05;100;535
32.06;100;542
32.07;100;545
32.08;100;556
32.09;100;563
32.1;100;566
32.11;100;555
32.12;100;546
32.13;100;528
32.14;100;503
32.15;100;478
32.16;100;464
32.17;100;455
32.18;100;448
32.19;100;444
32.2;100;451
32.21;100;454
32.22;100;466
32.23;100;464
32.24;100;467
32.25;100;476
32.26;100;483
32.27;100;483
32.28;100;489
32.29;100;497
32.3;100;491
32.31;100;504
32.32;100;500
32.33;100;500
32.34;100;507
32.35;100;502
32.36;100;508
32.37;100;505
32.38;100;505
32.39;100;508
32.4;100;504
32.41;100;505
32.42;100;510
32.43;100;512
32.44;100;510
32.45;100;508
32.46;100;508
32.47;100;507
32.48;100;507
32.49;100;512
32.5;100;512
32.51;100;511
32.52;100;518
32.53;100;513
32.54;100;511
32.55;100;513
32.56;100;515
32.57;100;515
32.58;100;512
32.59;100;515
32.6;100;516
32.61;100;510
32.62;100;513
32.63;100;521
32.64;100;525
32.65;100;515
32.66;100;525
32.67;100;529
32.68;100;519
32.69;100;515
32.7;100;502
32.71;100;509
32.72;100;506
32.73;100;509
32.74;100;507
32.75;100;506
32.76;100;505
32.77;100;507
32.78;100;504
32.79;100;502
32.8;100;481
32.81;100;505
32.82;100;612
32.83;100;705
32.84;100;616
32.85;100;463
32.86;100;462
32.87;100;463
32.88;100;473
32.89;100;478
32.9;100;480
32.91;100;484
32.92;100;484
32.93;100;496
32.94;100;499
32.95;100;494
32.96;100;500
32.97;100;506
32.98;100;511
32.99;100;513
33;100;516
33.01;100;531
33.02;100;527
33.03;100;544
33.04;100;548
33.05;100;552
33.06;100;567
33.07;100;570
33.08;100;565
33.09;100;564
33.1;100;546
33.11;100;519
33.12;100;486
33.13;100;479
33.14;100;452
33.15;100;449
33.16;100;455
33.17;100;454
33.18;100;460
33.19;100;462
33.2;100;465
33.21;100;476
33.22;100;480
33.23;100;487
33.24;100;493
33.25;100;499
33.26;100;509
33.27;100;511
33.28;100;512
33.29;100;509
33.3;100;508
33.31;100;509
33.32;100;508
33.33;100;515
33.34;100;516
33.35;100;508
33.36;100;512
33.37;100;514
33.38;100;516
33.39;100;516
33.4;100;518
33.41;100;515
33.42;100;515
33.43;100;517
33.44;100;520
33.45;100;519
33.46;100;524
33.47;100;515
33.48;100;521
33.49;100;517
33.5;100;510
33.51;100;518
33.52;100;517
33.53;100;504
33.54;100;524
33.55;100;513
33.56;100;518
33.57;100;519
33.58;100;513
33.59;100;514
33.6;100;521
33.61;100;518
33.62;100;518
33.63;100;525
33.64;100;530
33.65;100;521
33.66;100;518
33.67;100;512
33.68;100;512
33.69;100;516
33.7;100;517
33.71;100;516
33.72;100;519
33.73;100;523
33.74;100;524
33.75;100;523
33.76;100;508
33.77;100;541
33.78;100;650
33.79;100;735
33.8;100;655
33.81;100;497
33.82;100;477
33.83;100;482
33.84;100;492
33.85;100;498
33.86;100;504
33.87;100;504
33.88;100;504
33.89;100;515
33.9;100;514
33.91;100;518
33.92;100;518
33.93;100;519
33.94;100;519
33.95;100;536
33.96;100;531
33.97;100;533
33.98;100;547
33.99;100;549
34;100;560
34.01;100;564
34.02;100;573
34.03;100;575
34.04;100;576
34.05;100;573
34.06;100;558
34.07;100;529
34.08;100;501
34.09;100;480
34.1;100;472
34.11;100;459
34.12;100;460
34.13;100;465
34.14;100;465
34.15;100;477
34.16;100;473
34.17;100;477
34.18;100;491
34.19;100;495
34.2;100;490
34.21;100;501
34.22;100;503
34.23;100;505
34.24;100;514
34.25;100;515
34.26;100;512
34.27;100;512
34.28;100;516
34.29;100;519
34.3;100;512
34.31;100;507
34.32;100;511
34.33;100;512
34.34;100;513
34.35;100;510
34.36;100;511
34.37;100;511
34.38;100;511
34.39;100;510
34.4;100;511
34.41;100;512
34.42;100;508
34.43;100;513
34.44;100;510
34.45;100;513
34.46;100;509
34.47;100;512
34.48;100;513
34.49;100;518
34.5;100;512
34.51;100;518
34.52;100;519
34.53;100;512
34.54;100;511
34.55;100;511
34.56;100;508
34.57;100;510
34.58;100;505
34.59;100;502
34.6;100;504
34.61;100;500
34.62;100;504
34.63;100;506
34.64;100;511
34.65;100;511
34.66;100;505
34.67;100;510
34.68;100;500
34.69;100;496
34.7;100;494
34.71;100;490
34.72;100;486
34.73;100;493
34.74;100;489
34.75;100;496
34.76;100;496
34.77;100;496
34.78;100;470
34.79;100;507
34.8;100;619
34.81;100;695
34.82;100;624
34.83;100;463
34.84;100;452
34.85;100;448
34.86;100;457
34.87;100;464
34.88;100;464
34.89;100;469
34.9;100;476
34.91;100;476
34.92;100;487
34.93;100;487
34.94;100;488
34.95;100;491
34.96;100;491
34.97;100;500
34.98;100;500
34.99;100;508
35;100;514
35.01;100;536
35.02;100;536
35.03;100;549
35.04;100;546
35.05;100;547
35.06;100;548
35.07;100;536
35.08;100;524
35.09;100;508
35.1;100;476
35.11;100;459
35.12;100;438
35.13;100;422
35.14;100;421
35.15;100;426
35.16;100;432
35.17;100;435
35.18;100;442
35.19;100;447
35.2;100;456
35.21;100;465
35.22;100;465
35.23;100;472
35.24;100;472
35.25;100;476
35.26;100;485
35.27;100;481
35.28;100;482
35.29;100;484
35.3;100;487
35.31;100;488
35.32;100;480
35.33;100;483
35.34;100;486
35.35;100;487
35.36;100;479
35.37;100;490
35.38;100;489
35.39;100;489
35.4;100;489
35.41;100;487
35.42;100;491
35.43;100;488
35.44;100;495
35.45;100;489
35.46;100;497
35.47;100;495
35.48;100;497
35.49;100;498
35.5;100;499
35.51;100;496
35.52;100;502
35.53;100;494
35.54;100;494
35.55;100;495
35.56;100;501
35.57;100;498
35.58;100;495
35.59;100;497
35.6;100;507
35.61;100;507
35.62;100;496
35.63;100;502
35.64;100;511
35.65;100;507
35.66;100;500
35.67;100;491
35.68;100;494
35.69;100;502
35.7;100;499
35.71;100;499
35.72;100;501
35.73;100;502
35.74;100;495
35.75;100;486
35.76;100;491
35.77;100;581
35.78;100;675
35.79;100;656
35.8;100;473
35.81;100;462
35.82;100;459
35.83;100;467
35.84;100;475
35.85;100;476
35.86;100;489
35.87;100;488
35.88;100;489
35.89;100;501
35.9;100;499
35.91;100;506
35.92;100;507
35.93;100;508
35.94;100;513
35.95;100;515
35.96;100;518
35.97;100;525
35.98;100;533
35.99;100;538
36;100;545
36.01;100;556
36.02;100;563
36.03;100;560
36.04;100;552
36.05;100;534
36.06;100;513
36.07;100;487
36.08;100;463
36.09;100;448
36.1;100;438
36.11;100;435
36.12;100;436
36.13;100;450
36.14;100;452
36.15;100;455
36.16;100;461
36.17;100;469
36.18;100;467
36.19;100;484
36.2;100;485
36.21;100;489
36.22;100;491
36.23;100;497
36.24;100;507
36.25;100;504
36.26;100;504
36.27;100;500
36.28;100;502
36.29;100;502
36.3;100;504
36.31;100;501
36.32;100;497
36.33;100;501
36.34;100;508
36.35;100;506
36.36;100;503
36.37;100;508
36.38;100;510
36.39;100;512
36.4;100;514
36.41;100;512
36.42;100;515
36.43;100;524
36.44;100;523
36.45;100;532
36.46;100;522
36.47;100;513
36.48;100;503
36.49;100;512
36.5;100;506
36.51;100;500
36.52;100;500
36.53;100;506
36.54;100;503
36.55;100;501
36.56;100;506
36.57;100;479
36.58;100;519
36.59;100;630
36.6;100;688
36.61;100;542
36.62;100;450
36.63;100;477
36.64;100;477
36.65;100;483
36.66;100;488
36.67;100;492
36.68;100;501
36.69;100;502
36.7;100;506
36.71;100;514
36.72;100;515
36.73;100;517
36.74;100;523
36.75;100;526
36.76;100;529
36.77;100;536
36.78;100;535
36.79;100;547
36.8;100;553
36.81;100;563
36.82;100;564
36.83;100;577
36.84;100;571
36.85;100;565
36.86;100;551
36.87;100;533
36.88;100;499
36.89;100;487
36.9;100;465
36.91;100;448
36.92;100;445
36.93;100;451
36.94;100;454
36.95;100;455
36.96;100;458
36.97;100;470
36.98;100;465
36.99;100;485
37;100;487
37.01;100;486
37.02;100;495
37.03;100;499
37.04;100;501
37.05;100;505
37.06;100;503
37.07;100;506
37.08;100;513
37.09;100;511
37.1;100;502
37.11;100;511
37.12;100;513
37.13;100;517
37.14;100;508
37.15;100;513
37.16;100;515
37.17;100;519
37.18;100;524
37.19;100;513
37.2;100;520
37.21;100;525
37.22;100;524
37.23;100;521
37.24;100;509
37.25;100;507
37.26;100;500
37.27;100;504
37.28;100;504
37.29;100;510
37.3;100;507
37.31;100;512
37.32;100;514
37.33;100;493
37.34;100;507
37.35;100;606
37.36;100;686
37.37;100;603
37.38;100;455
37.39;100;478
37.4;100;471
37.41;100;480
37.42;100;483
37.43;100;491
37.44;100;488
37.45;100;502
37.46;100;498
37.47;100;497
37.48;100;504
37.49;100;512
37.5;100;510
37.51;100;514
37.52;100;516
37.53;100;526
37.54;100;526
37.55;100;535
37.56;100;537
37.57;100;552
37.58;100;556
37.59;100;559
37.6;100;553
37.61;100;556
37.62;100;555
37.63;100;530
37.64;100;505
37.65;100;475
37.66;100;451
37.67;100;451
37.68;100;445
37.69;100;445
37.7;100;443
37.71;100;459
37.72;100;459
37.73;100;464
37.74;100;471
37.75;100;477
37.76;100;484
37.77;100;488
37.78;100;488
37.79;100;494
37.8;100;496
37.81;100;500
37.82;100;502
37.83;100;503
37.84;100;504
37.85;100;510
37.86;100;505
37.87;100;508
37.88;100;507
37.89;100;504
37.9;100;508
37.91;100;512
37.92;100;508
37.93;100;511
37.94;100;505
37.95;100;508
37.96;100;513
37.97;100;512
37.98;100;515
37.99;100;523
38;100;518
38.01;100;511
38.02;100;504
38.03;100;500
38.04;100;505
38.05;100;504
38.06;100;510
38.07;100;508
38.08;100;509
38.09;100;508
38.1;100;505
38.11;100;483
38.12;100;534
38.13;100;659
38.14;100;706
38.15;100;552
38.16;100;480
38.17;100;468
38.18;100;470
38.19;100;477
38.2;100;482
38.21;100;490
38.22;100;487
38.23;100;503
38.24;100;498
38.25;100;504
38.26;100;510
38.27;100;511
38.28;100;512
38.29;100;513
38.3;100;518
38.31;100;524
38.32;100;522
38.33;100;537
38.34;100;542
38.35;100;547
38.36;100;554
38.37;100;560
38.38;100;558
38.39;100;558
38.4;100;544
38.41;100;531
38.42;100;508
38.43;100;476
38.44;100;464
38.45;100;457
38.46;100;443
38.47;100;451
38.48;100;455
38.49;100;465
38.5;100;467
38.51;100;472
38.52;100;472
38.53;100;475
38.54;100;484
38.55;100;487
38.56;100;481
38.57;100;495
38.58;100;491
38.59;100;496
38.6;100;501
38.61;100;506
38.62;100;498
38.63;100;503
38.64;100;500
38.65;100;509
38.66;100;502
38.67;100;510
38.68;100;512
38.69;100;499
38.7;100;501
38.71;100;510
38.72;100;505
38.73;100;507
38.74;100;508
38.75;100;510
38.76;100;511
38.77;100;507
38.78;100;508
38.79;100;508
38.8;100;508
38.81;100;510
38.82;100;509
38.83;100;510
38.84;100;515
38.85;100;522
38.86;100;523
38.87;100;518
38.88;100;505
38.89;100;507
38.9;100;504
38.91;100;508
38.92;100;507
38.93;100;508
38.94;100;504
38.95;100;507
38.96;100;516
38.97;100;500
38.98;100;492
38.99;100;580
39;100;688
39.01;100;692
39.02;100;508
39.03;100;462
39.04;100;460
39.05;100;470
39.06;100;473
39.07;100;476
39.08;100;481
39.09;100;487
39.1;100;483
39.11;100;495
39.12;100;489
39.13;100;496
39.14;100;498
39.15;100;498
39.16;100;497
39.17;100;511
39.18;100;514
39.19;100;527
39.2;100;528
39.21;100;538
39.22;100;546
39.23;100;554
39.24;100;553
39.25;100;554
39.26;100;550
39.27;100;543
39.28;100;526
39.29;100;506
39.3;100;477
39.31;100;466
39.32;100;455
39.33;100;463
39.34;100;461
39.35;100;464
39.36;100;467
39.37;100;481
39.38;100;476
39.39;100;479
39.4;100;483
39.41;100;493
39.42;100;486
39.43;100;496
39.44;100;497
39.45;100;497
39.46;100;496
39.47;100;503
39.48;100;500
39.49;100;504
39.5;100;503
39.51;100;513
39.52;100;511
39.53;100;514
39.54;100;507
39.55;100;515
39.56;100;513
39.57;100;514
39.58;100;508
39.59;100;518
39.6;100;516
39.61;100;510
39.62;100;513
39.63;100;512
39.64;100;514
39.65;100;515
39.66;100;511
39.67;100;513
39.68;100;512
39.69;100;511
39.7;100;508
39.71;100;519
39.72;100;508
39.73;100;515
39.74;100;510
39.75;100;512
39.76;100;508
39.77;100;521
39.78;100;516
39.79;100;519
39.8;100;520
39.81;100;524
39.82;100;512
39.83;100;505
39.84;100;504
39.85;100;502
39.86;100;507
39.87;100;505
39.88;100;509
39.89;100;503
39.9;100;502
39.91;100;507
39.92;100;503
39.93;100;499
39.94;100;481
39.95;100;575
39.96;100;680
39.97;100;711
39.98;100;524
39.99;100;462
