time;Sampling Frequency;ECG;Pulse
0;1000;519;510
0.001;1000;519;511
0.002;1000;516;513
0.003;1000;516;514
0.004;1000;516;511
0.005;1000;516;513
0.006;1000;515;511
0.007;1000;515;515
0.008;1000;515;511
0.009;1000;517;515
0.01;1000;517;512
0.011;1000;517;511
0.012;1000;518;515
0.013;1000;517;515
0.014;1000;517;514
0.015;1000;515;514
0.016;1000;515;513
0.017;1000;515;515
0.018;1000;513;515
0.019;1000;516;514
0.02;1000;520;515
0.021;1000;524;514
0.022;1000;523;514
0.023;1000;520;519
0.024;1000;520;515
0.025;1000;523;519
0.026;1000;527;515
0.027;1000;527;516
0.028;1000;527;518
0.029;1000;527;516
0.03;1000;526;515
0.031;1000;526;516
0.032;1000;526;518
0.033;1000;523;517
0.034;1000;518;517
0.035;1000;515;516
0.036;1000;519;516
0.037;1000;524;518
0.038;1000;526;516
0.039;1000;526;519
0.04;1000;527;516
0.041;1000;527;517
0.042;1000;528;519
0.043;1000;531;519
0.044;1000;531;518
0.045;1000;532;516
0.046;1000;531;516
0.047;1000;529;518
0.048;1000;528;519
0.049;1000;526;516
0.05;1000;524;517
0.051;1000;521;516
0.052;1000;517;519
0.053;1000;515;516
0.054;1000;514;521
0.055;1000;513;517
0.056;1000;512;517
0.057;1000;513;521
0.058;1000;514;518
0.059;1000;515;518
0.06;1000;516;515
0.061;1000;515;516
0.062;1000;514;518
0.063;1000;513;519
0.064;1000;513;516
0.065;1000;513;515
0.066;1000;512;516
0.067;1000;508;519
0.068;1000;508;519
0.069;1000;508;515
0.07;1000;510;520
0.071;1000;510;516
0.072;1000;508;519
0.073;1000;506;519
0.074;1000;506;517
0.075;1000;508;515
0.076;1000;508;515
0.077;1000;507;517
0.078;1000;506;517
0.079;1000;506;516
0.08;1000;509;515
0.081;1000;511;514
0.082;1000;510;516
0.083;1000;508;517
0.084;1000;504;515
0.085;1000;504;515
0.086;1000;505;516
0.087;1000;505;514
0.088;1000;507;518
0.089;1000;508;515
0.09;1000;504;513
0.091;1000;502;513
0.092;1000;508;515
0.093;1000;510;515
0.094;1000;508;513
0.095;1000;507;513
0.096;1000;508;512
0.097;1000;507;515
0.098;1000;508;515
0.099;1000;510;513
0.1;1000;511;513
0.101;1000;512;513
0.102;1000;512;512
0.103;1000;512;517
0.104;1000;514;512
0.105;1000;513;513
0.106;1000;513;512
0.107;1000;513;514
0.108;1000;513;514
0.109;1000;512;513
0.11;1000;513;511
0.111;1000;513;511
0.112;1000;512;513
0.113;1000;513;515
0.114;1000;511;511
0.115;1000;511;512
0.116;1000;510;512
0.117;1000;510;513
0.118;1000;510;512
0.119;1000;510;516
0.12;1000;510;511
0.121;1000;509;511
0.122;1000;506;516
0.123;1000;503;512
0.124;1000;500;512
0.125;1000;497;510
0.126;1000;495;511
0.127;1000;494;513
0.128;1000;488;513
0.129;1000;481;511
0.13;1000;477;510
0.131;1000;478;511
0.132;1000;478;514
0.133;1000;479;513
0.134;1000;482;511
0.135;1000;483;515
0.136;1000;488;511
0.137;1000;493;513
0.138;1000;496;514
0.139;1000;502;512
0.14;1000;511;510
0.141;1000;521;511
0.142;1000;532;513
0.143;1000;543;513
0.144;1000;554;512
0.145;1000;565;511
0.146;1000;576;511
0.147;1000;589;513
0.148;1000;606;512
0.149;1000;624;512
0.15;1000;641;512
0.151;1000;657;512
0.152;1000;670;510
0.153;1000;681;515
0.154;1000;693;512
0.155;1000;704;509
0.156;1000;716;510
0.157;1000;728;512
0.158;1000;742;513
0.159;1000;753;512
0.16;1000;764;511
0.161;1000;774;510
0.162;1000;782;510
0.163;1000;783;514
0.164;1000;781;512
0.165;1000;773;510
0.166;1000;760;511
0.167;1000;740;513
0.168;1000;715;513
0.169;1000;686;513
0.17;1000;656;511
0.171;1000;623;509
0.172;1000;592;512
0.173;1000;563;513
0.174;1000;537;510
0.175;1000;518;509
0.176;1000;503;510
0.177;1000;489;512
0.178;1000;478;512
0.179;1000;472;510
0.18;1000;467;510
0.181;1000;466;510
0.182;1000;466;514
0.183;1000;467;510
0.184;1000;466;514
0.185;1000;462;509
0.186;1000;459;510
0.187;1000;456;512
0.188;1000;457;511
0.189;1000;459;511
0.19;1000;459;509
0.191;1000;459;509
0.192;1000;458;511
0.193;1000;456;512
0.194;1000;453;509
0.195;1000;454;510
0.196;1000;456;510
0.197;1000;455;511
0.198;1000;455;509
0.199;1000;455;514
0.2;1000;456;510
0.201;1000;458;510
0.202;1000;462;514
0.203;1000;467;511
0.204;1000;468;510
0.205;1000;465;509
0.206;1000;465;512
0.207;1000;464;512
0.208;1000;464;510
0.209;1000;467;514
0.21;1000;468;510
0.211;1000;467;510
0.212;1000;467;512
0.213;1000;468;513
0.214;1000;473;512
0.215;1000;476;510
0.216;1000;477;510
0.217;1000;476;512
0.218;1000;474;509
0.219;1000;472;514
0.22;1000;472;510
0.221;1000;472;510
0.222;1000;473;512
0.223;1000;476;513
0.224;1000;477;511
0.225;1000;478;511
0.226;1000;479;512
0.227;1000;479;513
0.228;1000;481;511
0.229;1000;481;513
0.23;1000;477;510
0.231;1000;477;510
0.232;1000;481;512
0.233;1000;483;513
0.234;1000;481;513
0.235;1000;484;510
0.236;1000;487;511
0.237;1000;492;513
0.238;1000;493;514
0.239;1000;493;510
0.24;1000;494;510
0.241;1000;493;511
0.242;1000;494;513
0.243;1000;494;513
0.244;1000;493;511
0.245;1000;491;511
0.246;1000;489;512
0.247;1000;489;516
0.248;1000;490;511
0.249;1000;490;515
0.25;1000;489;511
0.251;1000;489;512
0.252;1000;489;514
0.253;1000;489;515
0.254;1000;491;513
0.255;1000;493;511
0.256;1000;494;512
0.257;1000;496;513
0.258;1000;498;512
0.259;1000;502;516
0.26;1000;503;512
0.261;1000;502;512
0.262;1000;499;512
0.263;1000;496;516
0.264;1000;495;514
0.265;1000;496;512
0.266;1000;495;512
0.267;1000;494;515
0.268;1000;493;514
0.269;1000;493;513
0.27;1000;495;512
0.271;1000;498;512
0.272;1000;498;513
0.273;1000;499;513
0.274;1000;500;512
0.275;1000;502;512
0.276;1000;503;512
0.277;1000;504;512
0.278;1000;505;516
0.279;1000;506;513
0.28;1000;509;516
0.281;1000;510;513
0.282;1000;511;514
0.283;1000;509;515
0.284;1000;507;514
0.285;1000;508;511
0.286;1000;508;512
0.287;1000;509;514
0.288;1000;510;515
0.289;1000;510;515
0.29;1000;508;513
0.291;1000;505;513
0.292;1000;504;514
0.293;1000;504;515
0.294;1000;502;514
0.295;1000;501;514
0.296;1000;501;514
0.297;1000;505;512
0.298;1000;510;517
0.299;1000;512;511
0.3;1000;515;513
0.301;1000;518;512
0.302;1000;519;515
0.303;1000;520;515
0.304;1000;521;514
0.305;1000;521;511
0.306;1000;519;512
0.307;1000;519;513
0.308;1000;519;513
0.309;1000;519;511
0.31;1000;515;510
0.311;1000;515;511
0.312;1000;515;514
0.313;1000;515;512
0.314;1000;514;515
0.315;1000;515;509
0.316;1000;517;511
0.317;1000;520;512
0.318;1000;522;513
0.319;1000;523;513
0.32;1000;525;510
0.321;1000;526;511
0.322;1000;526;512
0.323;1000;528;510
0.324;1000;529;514
0.325;1000;530;510
0.326;1000;529;510
0.327;1000;527;515
0.328;1000;527;511
0.329;1000;528;513
0.33;1000;527;509
0.331;1000;526;510
0.332;1000;527;511
0.333;1000;527;513
0.334;1000;528;511
0.335;1000;528;510
0.336;1000;527;509
0.337;1000;529;512
0.338;1000;532;512
0.339;1000;535;509
0.34;1000;537;510
0.341;1000;539;510
0.342;1000;540;509
0.343;1000;540;513
0.344;1000;539;510
0.345;1000;538;513
0.346;1000;534;509
0.347;1000;533;511
0.348;1000;536;512
0.349;1000;540;511
0.35;1000;543;508
0.351;1000;545;508
0.352;1000;548;511
0.353;1000;550;511
0.354;1000;550;510
0.355;1000;548;510
0.356;1000;547;510
0.357;1000;549;512
0.358;1000;549;510
0.359;1000;549;513
0.36;1000;551;509
0.361;1000;555;511
0.362;1000;556;512
0.363;1000;555;513
0.364;1000;555;512
0.365;1000;556;509
0.366;1000;556;510
0.367;1000;557;512
0.368;1000;559;513
0.369;1000;560;510
0.37;1000;561;511
0.371;1000;562;510
0.372;1000;562;512
0.373;1000;562;511
0.374;1000;562;515
0.375;1000;564;511
0.376;1000;567;511
0.377;1000;568;516
0.378;1000;568;513
0.379;1000;567;514
0.38;1000;567;511
0.381;1000;568;512
0.382;1000;571;514
0.383;1000;572;516
0.384;1000;572;513
0.385;1000;573;512
0.386;1000;573;513
0.387;1000;572;516
0.388;1000;572;515
0.389;1000;571;513
0.39;1000;570;519
0.391;1000;571;515
0.392;1000;570;518
0.393;1000;573;519
0.394;1000;574;518
0.395;1000;574;515
0.396;1000;571;516
0.397;1000;568;518
0.398;1000;567;519
0.399;1000;569;518
0.4;1000;571;518
0.401;1000;574;518
0.402;1000;574;520
0.403;1000;572;521
0.404;1000;569;520
0.405;1000;568;521
0.406;1000;568;521
0.407;1000;565;520
0.408;1000;564;526
0.409;1000;563;523
0.41;1000;561;522
0.411;1000;560;521
0.412;1000;560;525
0.413;1000;558;527
0.414;1000;552;526
0.415;1000;550;525
0.416;1000;550;525
0.417;1000;547;527
0.418;1000;544;529
0.419;1000;542;526
0.42;1000;539;527
0.421;1000;539;527
0.422;1000;540;530
0.423;1000;540;529
0.424;1000;537;532
0.425;1000;535;529
0.426;1000;531;530
0.427;1000;529;536
0.428;1000;528;532
0.429;1000;528;535
0.43;1000;524;531
0.431;1000;520;532
0.432;1000;517;536
0.433;1000;514;537
0.434;1000;512;536
0.435;1000;508;536
0.436;1000;505;536
0.437;1000;504;536
0.438;1000;503;541
0.439;1000;502;540
0.44;1000;500;538
0.441;1000;497;539
0.442;1000;496;544
0.443;1000;495;542
0.444;1000;494;543
0.445;1000;493;540
0.446;1000;491;542
0.447;1000;490;545
0.448;1000;489;546
0.449;1000;488;543
0.45;1000;487;543
0.451;1000;486;544
0.452;1000;483;548
0.453;1000;479;546
0.454;1000;477;551
0.455;1000;479;545
0.456;1000;479;549
0.457;1000;475;550
0.458;1000;472;551
0.459;1000;475;550
0.46;1000;477;548
0.461;1000;479;549
0.462;1000;477;551
0.463;1000;471;551
0.464;1000;465;552
0.465;1000;462;551
0.466;1000;465;551
0.467;1000;467;553
0.468;1000;469;554
0.469;1000;469;553
0.47;1000;469;553
0.471;1000;467;554
0.472;1000;467;551
0.473;1000;468;557
0.474;1000;468;553
0.475;1000;467;552
0.476;1000;467;553
0.477;1000;467;556
0.478;1000;469;557
0.479;1000;470;555
0.48;1000;469;555
0.481;1000;469;554
0.482;1000;469;553
0.483;1000;469;558
0.484;1000;469;556
0.485;1000;469;553
0.486;1000;468;555
0.487;1000;471;557
0.488;1000;472;555
0.489;1000;470;558
0.49;1000;470;553
0.491;1000;468;554
0.492;1000;467;556
0.493;1000;467;557
0.494;1000;467;555
0.495;1000;468;552
0.496;1000;469;553
0.497;1000;472;554
0.498;1000;474;552
0.499;1000;473;556
0.5;1000;472;552
0.501;1000;472;552
0.502;1000;472;553
0.503;1000;474;554
0.504;1000;478;550
0.505;1000;477;550
0.506;1000;474;550
0.507;1000;472;551
0.508;1000;471;549
0.509;1000;471;547
0.51;1000;474;547
0.511;1000;473;547
0.512;1000;473;548
0.513;1000;477;548
0.514;1000;479;545
0.515;1000;478;545
0.516;1000;476;545
0.517;1000;474;546
0.518;1000;473;546
0.519;1000;477;542
0.52;1000;479;542
0.521;1000;479;542
0.522;1000;483;543
0.523;1000;484;541
0.524;1000;485;539
0.525;1000;487;539
0.526;1000;487;538
0.527;1000;487;539
0.528;1000;487;539
0.529;1000;486;537
0.53;1000;483;540
0.531;1000;481;536
0.532;1000;480;535
0.533;1000;481;539
0.534;1000;481;535
0.535;1000;483;537
0.536;1000;484;532
0.537;1000;481;530
0.538;1000;480;535
0.539;1000;479;532
0.54;1000;480;534
0.541;1000;484;530
0.542;1000;487;531
0.543;1000;487;532
0.544;1000;487;530
0.545;1000;487;527
0.546;1000;486;526
0.547;1000;484;526
0.548;1000;483;529
0.549;1000;487;527
0.55;1000;489;524
0.551;1000;488;524
0.552;1000;486;526
0.553;1000;485;525
0.554;1000;484;524
0.555;1000;484;520
0.556;1000;485;521
0.557;1000;484;522
0.558;1000;486;522
0.559;1000;488;518
0.56;1000;487;517
0.561;1000;486;517
0.562;1000;486;518
0.563;1000;487;519
0.564;1000;488;515
0.565;1000;489;514
0.566;1000;488;515
0.567;1000;487;518
0.568;1000;484;513
0.569;1000;481;517
0.57;1000;480;512
0.571;1000;482;512
0.572;1000;484;513
0.573;1000;486;513
0.574;1000;486;512
0.575;1000;487;509
0.576;1000;487;508
0.577;1000;487;510
0.578;1000;487;508
0.579;1000;488;511
0.58;1000;487;507
0.581;1000;486;507
0.582;1000;486;506
0.583;1000;485;509
0.584;1000;485;507
0.585;1000;485;504
0.586;1000;484;504
0.587;1000;484;506
0.588;1000;484;506
0.589;1000;485;504
0.59;1000;486;502
0.591;1000;483;501
0.592;1000;480;503
0.593;1000;480;503
0.594;1000;481;501
0.595;1000;481;501
0.596;1000;481;500
0.597;1000;483;499
0.598;1000;484;504
0.599;1000;487;500
0.6;1000;490;503
0.601;1000;492;498
0.602;1000;493;500
0.603;1000;494;501
0.604;1000;494;499
0.605;1000;493;497
0.606;1000;491;497
0.607;1000;490;499
0.608;1000;491;499
0.609;1000;491;498
0.61;1000;493;497
0.611;1000;492;496
0.612;1000;488;497
0.613;1000;486;498
0.614;1000;484;496
0.615;1000;486;495
0.616;1000;486;495
0.617;1000;485;493
0.618;1000;487;498
0.619;1000;489;495
0.62;1000;490;498
0.621;1000;491;494
0.622;1000;491;493
0.623;1000;492;496
0.624;1000;496;494
0.625;1000;496;493
0.626;1000;496;494
0.627;1000;494;496
0.628;1000;493;496
0.629;1000;492;496
0.63;1000;494;494
0.631;1000;496;495
0.632;1000;496;495
0.633;1000;496;499
0.634;1000;492;495
0.635;1000;490;494
0.636;1000;491;495
0.637;1000;493;497
0.638;1000;494;498
0.639;1000;495;496
0.64;1000;494;496
0.641;1000;494;495
0.642;1000;495;496
0.643;1000;496;500
0.644;1000;496;499
0.645;1000;499;496
0.646;1000;503;496
0.647;1000;503;499
0.648;1000;499;499
0.649;1000;498;499
0.65;1000;498;497
0.651;1000;496;496
0.652;1000;494;499
0.653;1000;493;500
0.654;1000;496;497
0.655;1000;498;497
0.656;1000;501;498
0.657;1000;504;500
0.658;1000;503;501
0.659;1000;502;498
0.66;1000;499;498
0.661;1000;499;500
0.662;1000;500;502
0.663;1000;502;501
0.664;1000;503;504
0.665;1000;504;499
0.666;1000;504;500
0.667;1000;504;503
0.668;1000;503;504
0.669;1000;505;502
0.67;1000;505;500
0.671;1000;502;501
0.672;1000;502;504
0.673;1000;501;506
0.674;1000;502;503
0.675;1000;504;503
0.676;1000;504;504
0.677;1000;503;505
0.678;1000;504;505
0.679;1000;503;509
0.68;1000;504;505
0.681;1000;505;505
0.682;1000;508;510
0.683;1000;510;506
0.684;1000;510;508
0.685;1000;511;506
0.686;1000;510;506
0.687;1000;507;509
0.688;1000;505;510
0.689;1000;506;509
0.69;1000;508;508
0.691;1000;509;508
0.692;1000;509;508
0.693;1000;510;513
0.694;1000;511;512
0.695;1000;510;510
0.696;1000;511;510
0.697;1000;511;513
0.698;1000;511;511
0.699;1000;512;515
0.7;1000;512;511
0.701;1000;511;513
0.702;1000;511;515
0.703;1000;513;517
0.704;1000;515;515
0.705;1000;519;513
0.706;1000;519;514
0.707;1000;520;518
0.708;1000;521;517
0.709;1000;519;515
0.71;1000;518;519
0.711;1000;517;516
0.712;1000;514;519
0.713;1000;512;520
0.714;1000;510;519
0.715;1000;509;517
0.716;1000;509;517
0.717;1000;511;519
0.718;1000;512;520
0.719;1000;512;520
0.72;1000;512;519
0.721;1000;515;519
0.722;1000;517;521
0.723;1000;519;521
0.724;1000;520;520
0.725;1000;518;521
0.726;1000;515;520
0.727;1000;514;519
0.728;1000;513;524
0.729;1000;515;521
0.73;1000;514;524
0.731;1000;515;520
0.732;1000;515;523
0.733;1000;514;524
0.734;1000;515;523
0.735;1000;515;521
0.736;1000;517;522
0.737;1000;517;524
0.738;1000;520;524
0.739;1000;521;523
0.74;1000;521;522
0.741;1000;521;523
0.742;1000;521;523
0.743;1000;524;527
0.744;1000;527;522
0.745;1000;528;523
0.746;1000;528;523
0.747;1000;526;525
0.748;1000;524;526
0.749;1000;524;525
0.75;1000;523;523
0.751;1000;518;524
0.752;1000;514;525
0.753;1000;515;526
0.754;1000;517;524
0.755;1000;517;524
0.756;1000;518;524
0.757;1000;517;526
0.758;1000;514;524
0.759;1000;516;529
0.76;1000;522;524
0.761;1000;523;524
0.762;1000;522;528
0.763;1000;521;525
0.764;1000;522;525
0.765;1000;520;523
0.766;1000;520;523
0.767;1000;523;526
0.768;1000;526;527
0.769;1000;524;523
0.77;1000;520;523
0.771;1000;517;523
0.772;1000;518;527
0.773;1000;520;526
0.774;1000;521;523
0.775;1000;524;526
0.776;1000;527;524
0.777;1000;528;526
0.778;1000;527;527
0.779;1000;523;523
0.78;1000;521;523
0.781;1000;522;523
0.782;1000;523;524
0.783;1000;526;525
0.784;1000;527;524
0.785;1000;525;521
0.786;1000;522;522
0.787;1000;519;524
0.788;1000;520;523
0.789;1000;522;526
0.79;1000;523;521
0.791;1000;518;522
0.792;1000;516;521
0.793;1000;520;526
0.794;1000;522;522
0.795;1000;521;525
0.796;1000;519;521
0.797;1000;520;523
0.798;1000;524;524
0.799;1000;527;523
0.8;1000;530;520
0.801;1000;531;521
0.802;1000;531;520
0.803;1000;529;524
0.804;1000;527;522
0.805;1000;527;520
0.806;1000;527;520
0.807;1000;525;522
0.808;1000;524;522
0.809;1000;523;522
0.81;1000;522;519
0.811;1000;522;518
0.812;1000;520;520
0.813;1000;522;521
0.814;1000;523;517
0.815;1000;524;517
0.816;1000;525;518
0.817;1000;524;519
0.818;1000;523;519
0.819;1000;519;516
0.82;1000;518;516
0.821;1000;516;517
0.822;1000;514;520
0.823;1000;513;516
0.824;1000;514;519
0.825;1000;515;514
0.826;1000;513;515
0.827;1000;512;516
0.828;1000;510;517
0.829;1000;507;515
0.83;1000;508;513
0.831;1000;511;513
0.832;1000;512;515
0.833;1000;510;516
0.834;1000;507;512
0.835;1000;505;512
0.836;1000;505;513
0.837;1000;504;516
0.838;1000;501;513
0.839;1000;501;516
0.84;1000;502;512
0.841;1000;503;513
0.842;1000;505;514
0.843;1000;506;515
0.844;1000;506;513
0.845;1000;507;511
0.846;1000;506;511
0.847;1000;505;513
0.848;1000;503;512
0.849;1000;501;512
0.85;1000;499;511
0.851;1000;501;510
0.852;1000;502;512
0.853;1000;500;511
0.854;1000;500;511
0.855;1000;501;510
0.856;1000;502;510
0.857;1000;500;508
0.858;1000;500;514
0.859;1000;504;510
0.86;1000;504;508
0.861;1000;503;509
0.862;1000;503;510
0.863;1000;505;511
0.864;1000;507;510
0.865;1000;504;508
0.866;1000;501;508
0.867;1000;499;508
0.868;1000;502;512
0.869;1000;506;510
0.87;1000;508;508
0.871;1000;507;508
0.872;1000;506;510
0.873;1000;506;510
0.874;1000;502;510
0.875;1000;501;508
0.876;1000;504;508
0.877;1000;506;510
0.878;1000;508;510
0.879;1000;509;507
0.88;1000;511;506
0.881;1000;511;507
0.882;1000;510;509
0.883;1000;510;510
0.884;1000;511;507
0.885;1000;513;507
0.886;1000;510;508
0.887;1000;507;512
0.888;1000;505;507
0.889;1000;503;511
0.89;1000;502;506
0.891;1000;500;507
0.892;1000;500;509
0.893;1000;500;510
0.894;1000;498;508
0.895;1000;496;506
0.896;1000;493;507
0.897;1000;492;508
0.898;1000;491;507
0.899;1000;486;510
0.9;1000;482;506
0.901;1000;484;507
0.902;1000;483;506
0.903;1000;480;510
0.904;1000;478;509
0.905;1000;477;507
0.906;1000;478;506
0.907;1000;483;508
0.908;1000;488;509
0.909;1000;495;508
0.91;1000;502;506
0.911;1000;510;506
0.912;1000;518;508
0.913;1000;527;508
0.914;1000;535;506
0.915;1000;547;507
0.916;1000;557;506
0.917;1000;570;505
0.918;1000;585;511
0.919;1000;601;507
0.92;1000;617;510
0.921;1000;633;506
0.922;1000;649;508
0.923;1000;662;510
0.924;1000;673;508
0.925;1000;683;506
0.926;1000;691;506
0.927;1000;702;508
0.928;1000;713;508
0.929;1000;722;508
0.93;1000;732;507
0.931;1000;740;507
0.932;1000;745;508
0.933;1000;748;509
0.934;1000;746;508
0.935;1000;740;508
0.936;1000;730;508
0.937;1000;711;507
0.938;1000;684;511
0.939;1000;656;506
0.94;1000;627;508
0.941;1000;593;507
0.942;1000;562;505
0.943;1000;536;511
0.944;1000;516;508
0.945;1000;496;507
0.946;1000;481;508
0.947;1000;471;510
0.948;1000;464;511
0.949;1000;459;509
0.95;1000;458;507
0.951;1000;456;508
0.952;1000;455;507
0.953;1000;456;512
0.954;1000;459;508
0.955;1000;460;507
0.956;1000;459;508
0.957;1000;460;510
0.958;1000;462;511
0.959;1000;465;510
0.96;1000;467;508
0.961;1000;468;508
0.962;1000;466;508
0.963;1000;466;512
0.964;1000;464;511
0.965;1000;462;509
0.966;1000;460;510
0.967;1000;461;512
0.968;1000;464;512
0.969;1000;465;511
0.97;1000;465;510
0.971;1000;460;508
0.972;1000;454;511
0.973;1000;454;512
0.974;1000;456;508
0.975;1000;458;508
0.976;1000;459;509
0.977;1000;462;511
0.978;1000;464;512
0.979;1000;465;510
0.98;1000;467;509
0.981;1000;469;510
0.982;1000;470;514
0.983;1000;472;510
0.984;1000;475;514
0.985;1000;477;509
0.986;1000;478;510
0.987;1000;477;512
0.988;1000;478;512
0.989;1000;477;511
0.99;1000;477;509
0.991;1000;477;510
0.992;1000;477;512
0.993;1000;479;513
0.994;1000;478;510
0.995;1000;478;510
0.996;1000;477;510
0.997;1000;476;512
0.998;1000;477;511
0.999;1000;479;515
1;1000;481;511
1.001;1000;482;510
1.002;1000;484;515
1.003;1000;485;511
1.004;1000;487;513
1.005;1000;489;510
1.006;1000;489;510
1.007;1000;489;513
1.008;1000;491;514
1.009;1000;491;513
1.01;1000;487;511
1.011;1000;487;511
1.012;1000;486;511
1.013;1000;485;515
1.014;1000;487;513
1.015;1000;491;511
1.016;1000;495;512
1.017;1000;496;516
1.018;1000;496;513
1.019;1000;494;513
1.02;1000;492;511
1.021;1000;491;512
1.022;1000;491;514
1.023;1000;492;515
1.024;1000;493;511
1.025;1000;494;511
1.026;1000;492;512
1.027;1000;491;515
1.028;1000;492;514
1.029;1000;493;511
1.03;1000;496;516
1.031;1000;499;513
1.032;1000;497;515
1.033;1000;495;516
1.034;1000;494;514
1.035;1000;495;512
1.036;1000;496;512
1.037;1000;496;515
1.038;1000;495;514
1.039;1000;495;514
1.04;1000;496;513
1.041;1000;497;512
1.042;1000;497;515
1.043;1000;499;515
1.044;1000;502;513
1.045;1000;502;514
1.046;1000;504;513
1.047;1000;507;515
1.048;1000;507;514
1.049;1000;506;512
1.05;1000;504;515
1.051;1000;508;511
1.052;1000;507;513
1.053;1000;502;515
1.054;1000;499;514
1.055;1000;499;511
1.056;1000;500;512
1.057;1000;501;514
1.058;1000;501;514
1.059;1000;504;513
1.06;1000;508;512
1.061;1000;509;513
1.062;1000;508;512
1.063;1000;508;515
1.064;1000;508;511
1.065;1000;507;513
1.066;1000;507;513
1.067;1000;506;515
1.068;1000;507;516
1.069;1000;508;514
1.07;1000;508;512
1.071;1000;508;512
1.072;1000;508;515
1.073;1000;508;516
1.074;1000;509;512
1.075;1000;510;513
1.076;1000;512;513
1.077;1000;511;515
1.078;1000;511;514
1.079;1000;511;518
1.08;1000;515;513
1.081;1000;522;513
1.082;1000;525;517
1.083;1000;522;515
1.084;1000;519;514
1.085;1000;519;513
1.086;1000;519;513
1.087;1000;517;515
1.088;1000;515;516
1.089;1000;512;513
1.09;1000;510;513
1.091;1000;510;513
1.092;1000;511;516
1.093;1000;512;515
1.094;1000;512;513
1.095;1000;514;515
1.096;1000;516;513
1.097;1000;518;516
1.098;1000;521;517
1.099;1000;522;516
1.1;1000;524;513
1.101;1000;524;513
1.102;1000;523;515
1.103;1000;523;515
1.104;1000;524;515
1.105;1000;526;514
1.106;1000;527;513
1.107;1000;528;515
1.108;1000;528;516
1.109;1000;530;515
1.11;1000;532;515
1.111;1000;534;514
1.112;1000;533;513
1.113;1000;530;517
1.114;1000;529;515
1.115;1000;528;513
1.116;1000;532;513
1.117;1000;536;515
1.118;1000;539;516
1.119;1000;539;515
1.12;1000;540;514
1.121;1000;541;513
1.122;1000;541;513
1.123;1000;543;518
1.124;1000;545;516
1.125;1000;547;514
1.126;1000;545;514
1.127;1000;543;516
1.128;1000;545;515
1.129;1000;547;516
1.13;1000;548;514
1.131;1000;550;512
1.132;1000;551;515
1.133;1000;553;516
1.134;1000;553;512
1.135;1000;555;512
1.136;1000;554;513
1.137;1000;555;515
1.138;1000;557;515
1.139;1000;559;512
1.14;1000;561;513
1.141;1000;562;513
1.142;1000;563;518
1.143;1000;564;515
1.144;1000;563;512
1.145;1000;563;512
1.146;1000;563;512
1.147;1000;562;514
1.148;1000;561;512
1.149;1000;563;511
1.15;1000;563;511
1.151;1000;561;511
1.152;1000;559;514
1.153;1000;558;514
1.154;1000;558;512
1.155;1000;559;513
1.156;1000;561;513
1.157;1000;562;515
1.158;1000;563;515
1.159;1000;562;512
1.16;1000;562;513
1.161;1000;564;513
1.162;1000;565;515
1.163;1000;564;514
1.164;1000;566;512
1.165;1000;567;513
1.166;1000;565;514
1.167;1000;563;515
1.168;1000;561;516
1.169;1000;559;515
1.17;1000;558;515
1.171;1000;558;516
1.172;1000;556;518
1.173;1000;556;518
1.174;1000;554;522
1.175;1000;553;518
1.176;1000;550;518
1.177;1000;549;523
1.178;1000;547;519
1.179;1000;545;524
1.18;1000;544;520
1.181;1000;543;521
1.182;1000;542;524
1.183;1000;541;524
1.184;1000;539;525
1.185;1000;539;522
1.186;1000;538;524
1.187;1000;536;526
1.188;1000;532;525
1.189;1000;531;530
1.19;1000;528;526
1.191;1000;526;527
1.192;1000;524;527
1.193;1000;520;530
1.194;1000;518;530
1.195;1000;514;528
1.196;1000;512;529
1.197;1000;510;532
1.198;1000;509;534
1.199;1000;506;533
1.2;1000;503;532
1.201;1000;500;531
1.202;1000;497;532
1.203;1000;493;537
1.204;1000;490;536
1.205;1000;487;534
1.206;1000;483;536
1.207;1000;481;540
1.208;1000;481;537
1.209;1000;481;539
1.21;1000;479;537
1.211;1000;476;536
1.212;1000;472;539
1.213;1000;470;541
1.214;1000;469;537
1.215;1000;465;538
1.216;1000;461;539
1.217;1000;458;542
1.218;1000;460;542
1.219;1000;460;540
1.22;1000;459;541
1.221;1000;459;542
1.222;1000;459;547
1.223;1000;458;543
1.224;1000;458;547
1.225;1000;456;542
1.226;1000;456;544
1.227;1000;458;546
1.228;1000;456;546
1.229;1000;454;545
1.23;1000;452;544
1.231;1000;452;545
1.232;1000;452;547
1.233;1000;452;548
1.234;1000;450;547
1.235;1000;450;547
1.236;1000;451;547
1.237;1000;455;549
1.238;1000;453;550
1.239;1000;453;549
1.24;1000;454;549
1.241;1000;455;549
1.242;1000;455;548
1.243;1000;454;553
1.244;1000;453;550
1.245;1000;455;548
1.246;1000;457;549
1.247;1000;459;552
1.248;1000;455;553
1.249;1000;450;552
1.25;1000;450;550
1.251;1000;450;550
1.252;1000;450;549
1.253;1000;450;555
1.254;1000;451;552
1.255;1000;451;554
1.256;1000;451;550
1.257;1000;450;552
1.258;1000;450;551
1.259;1000;450;547
1.26;1000;453;549
1.261;1000;455;547
1.262;1000;455;551
1.263;1000;456;551
1.264;1000;457;548
1.265;1000;459;547
1.266;1000;460;547
1.267;1000;460;550
1.268;1000;457;548
1.269;1000;457;552
1.27;1000;457;547
1.271;1000;458;547
1.272;1000;458;547
1.273;1000;456;550
1.274;1000;456;548
1.275;1000;459;545
1.276;1000;459;545
1.277;1000;460;547
1.278;1000;460;548
1.279;1000;459;546
1.28;1000;459;544
1.281;1000;461;543
1.282;1000;462;542
1.283;1000;462;546
1.284;1000;462;544
1.285;1000;462;540
1.286;1000;462;541
1.287;1000;463;542
1.288;1000;464;542
1.289;1000;464;542
1.29;1000;463;539
1.291;1000;462;536
1.292;1000;462;539
1.293;1000;464;540
1.294;1000;467;536
1.295;1000;469;535
1.296;1000;470;535
1.297;1000;471;536
1.298;1000;472;536
1.299;1000;468;533
1.3;1000;466;531
1.301;1000;468;532
1.302;1000;470;536
1.303;1000;471;531
1.304;1000;470;534
1.305;1000;469;528
1.306;1000;467;528
1.307;1000;466;530
1.308;1000;466;530
1.309;1000;466;528
1.31;1000;466;524
1.311;1000;465;525
1.312;1000;466;526
1.313;1000;469;527
1.314;1000;473;523
1.315;1000;473;523
1.316;1000;472;521
1.317;1000;473;523
1.318;1000;470;521
1.319;1000;469;524
1.32;1000;471;519
1.321;1000;472;519
1.322;1000;474;523
1.323;1000;472;519
1.324;1000;472;520
1.325;1000;473;515
1.326;1000;472;515
1.327;1000;471;517
1.328;1000;469;519
1.329;1000;468;516
1.33;1000;469;514
1.331;1000;469;513
1.332;1000;468;514
1.333;1000;470;514
1.334;1000;472;511
1.335;1000;471;511
1.336;1000;472;511
1.337;1000;472;513
1.338;1000;473;511
1.339;1000;476;508
1.34;1000;478;507
1.341;1000;478;508
1.342;1000;476;510
1.343;1000;477;508
1.344;1000;476;511
1.345;1000;474;506
1.346;1000;473;506
1.347;1000;471;509
1.348;1000;470;508
1.349;1000;470;504
1.35;1000;471;510
1.351;1000;473;505
1.352;1000;472;507
1.353;1000;473;508
1.354;1000;476;505
1.355;1000;477;502
1.356;1000;476;502
1.357;1000;475;503
1.358;1000;474;503
1.359;1000;472;503
1.36;1000;471;500
1.361;1000;470;500
1.362;1000;470;499
1.363;1000;470;503
1.364;1000;472;502
1.365;1000;475;497
1.366;1000;476;499
1.367;1000;477;502
1.368;1000;478;499
1.369;1000;476;499
1.37;1000;476;497
1.371;1000;476;496
1.372;1000;477;497
1.373;1000;478;499
1.374;1000;480;495
1.375;1000;480;494
1.376;1000;479;495
1.377;1000;478;496
1.378;1000;478;497
1.379;1000;480;494
1.38;1000;483;494
1.381;1000;485;494
1.382;1000;486;498
1.383;1000;486;495
1.384;1000;481;498
1.385;1000;478;492
1.386;1000;480;495
1.387;1000;479;495
1.388;1000;478;497
1.389;1000;479;495
1.39;1000;480;493
1.391;1000;479;493
1.392;1000;477;495
1.393;1000;476;495
1.394;1000;476;495
1.395;1000;476;493
1.396;1000;477;492
1.397;1000;478;495
1.398;1000;480;495
1.399;1000;481;494
1.4;1000;482;494
1.401;1000;483;494
1.402;1000;484;493
1.403;1000;486;498
1.404;1000;487;495
1.405;1000;488;492
1.406;1000;488;494
1.407;1000;487;496
1.408;1000;483;498
1.409;1000;482;496
1.41;1000;483;495
1.411;1000;484;494
1.412;1000;484;494
1.413;1000;484;500
1.414;1000;487;498
1.415;1000;487;495
1.416;1000;485;496
1.417;1000;486;498
1.418;1000;487;498
1.419;1000;486;499
1.42;1000;486;496
1.421;1000;487;497
1.422;1000;487;499
1.423;1000;488;501
1.424;1000;490;498
1.425;1000;494;497
1.426;1000;495;499
1.427;1000;496;502
1.428;1000;496;502
1.429;1000;495;502
1.43;1000;491;504
1.431;1000;491;500
1.432;1000;493;502
1.433;1000;493;504
1.434;1000;492;502
1.435;1000;495;500
1.436;1000;496;501
1.437;1000;497;504
1.438;1000;499;504
1.439;1000;498;504
1.44;1000;498;503
1.441;1000;500;502
1.442;1000;500;505
1.443;1000;501;505
1.444;1000;498;505
1.445;1000;499;504
1.446;1000;503;504
1.447;1000;504;504
1.448;1000;503;509
1.449;1000;500;503
1.45;1000;498;505
1.451;1000;498;505
1.452;1000;497;508
1.453;1000;496;509
1.454;1000;496;508
1.455;1000;499;505
1.456;1000;500;506
1.457;1000;502;509
1.458;1000;502;511
1.459;1000;501;507
1.46;1000;500;508
1.461;1000;501;509
1.462;1000;501;511
1.463;1000;501;510
1.464;1000;503;515
1.465;1000;506;511
1.466;1000;506;511
1.467;1000;503;516
1.468;1000;502;513
1.469;1000;502;514
1.47;1000;499;511
1.471;1000;498;512
1.472;1000;498;515
1.473;1000;499;516
1.474;1000;499;513
1.475;1000;500;514
1.476;1000;502;514
1.477;1000;505;518
1.478;1000;507;516
1.479;1000;507;519
1.48;1000;509;515
1.481;1000;511;518
1.482;1000;512;519
1.483;1000;511;521
1.484;1000;509;519
1.485;1000;510;517
1.486;1000;512;518
1.487;1000;513;520
1.488;1000;511;520
1.489;1000;510;521
1.49;1000;509;519
1.491;1000;509;519
1.492;1000;512;522
1.493;1000;512;523
1.494;1000;508;522
1.495;1000;507;523
1.496;1000;507;522
1.497;1000;509;521
1.498;1000;511;527
1.499;1000;512;524
1.5;1000;513;522
1.501;1000;512;523
1.502;1000;514;525
1.503;1000;511;527
1.504;1000;508;526
1.505;1000;508;524
1.506;1000;508;524
1.507;1000;510;524
1.508;1000;511;529
1.509;1000;509;526
1.51;1000;507;529
1.511;1000;504;525
1.512;1000;505;524
1.513;1000;508;529
1.514;1000;509;527
1.515;1000;512;525
1.516;1000;513;525
1.517;1000;514;527
1.518;1000;514;529
1.519;1000;513;526
1.52;1000;513;526
1.521;1000;513;526
1.522;1000;515;528
1.523;1000;517;529
1.524;1000;517;526
1.525;1000;513;527
1.526;1000;511;527
1.527;1000;511;531
1.528;1000;513;527
1.529;1000;517;530
1.53;1000;519;526
1.531;1000;521;526
1.532;1000;521;529
1.533;1000;518;530
1.534;1000;520;528
1.535;1000;527;527
1.536;1000;528;526
1.537;1000;527;528
1.538;1000;526;527
1.539;1000;525;531
1.54;1000;523;527
1.541;1000;520;527
1.542;1000;517;526
1.543;1000;516;529
1.544;1000;519;528
1.545;1000;519;526
1.546;1000;519;526
1.547;1000;521;528
1.548;1000;523;529
1.549;1000;523;527
1.55;1000;522;525
1.551;1000;521;525
1.552;1000;519;527
1.553;1000;520;527
1.554;1000;519;524
1.555;1000;517;524
1.556;1000;515;524
1.557;1000;512;524
1.558;1000;511;529
1.559;1000;513;525
1.56;1000;515;528
1.561;1000;514;523
1.562;1000;512;525
1.563;1000;511;526
1.564;1000;510;525
1.565;1000;510;523
1.566;1000;507;523
1.567;1000;505;524
1.568;1000;504;524
1.569;1000;502;521
1.57;1000;499;522
1.571;1000;498;521
1.572;1000;496;522
1.573;1000;495;526
1.574;1000;495;523
1.575;1000;496;526
1.576;1000;498;521
1.577;1000;498;520
1.578;1000;498;524
1.579;1000;498;522
1.58;1000;500;519
1.581;1000;500;519
1.582;1000;499;521
1.583;1000;498;523
1.584;1000;498;519
1.585;1000;498;518
1.586;1000;497;519
1.587;1000;498;520
1.588;1000;499;519
1.589;1000;498;518
1.59;1000;499;517
1.591;1000;498;517
1.592;1000;499;522
1.593;1000;499;518
1.594;1000;499;520
1.595;1000;500;515
1.596;1000;498;515
1.597;1000;501;518
1.598;1000;504;519
1.599;1000;505;517
1.6;1000;506;515
1.601;1000;507;515
1.602;1000;505;516
1.603;1000;503;515
1.604;1000;503;518
1.605;1000;503;514
1.606;1000;504;514
1.607;1000;506;518
1.608;1000;504;514
1.609;1000;504;515
1.61;1000;504;512
1.611;1000;504;512
1.612;1000;503;514
1.613;1000;502;515
1.614;1000;501;513
1.615;1000;504;512
1.616;1000;502;511
1.617;1000;499;513
1.618;1000;498;513
1.619;1000;497;511
1.62;1000;498;511
1.621;1000;498;510
1.622;1000;499;510
1.623;1000;499;514
1.624;1000;500;511
1.625;1000;499;513
1.626;1000;502;509
1.627;1000;503;511
1.628;1000;503;512
1.629;1000;500;511
1.63;1000;497;508
1.631;1000;495;508
1.632;1000;497;510
1.633;1000;499;510
1.634;1000;499;510
1.635;1000;498;508
1.636;1000;494;508
1.637;1000;492;510
1.638;1000;492;509
1.639;1000;493;512
1.64;1000;493;507
1.641;1000;490;508
1.642;1000;486;510
1.643;1000;481;511
1.644;1000;477;508
1.645;1000;473;506
1.646;1000;470;506
1.647;1000;469;508
1.648;1000;470;510
1.649;1000;470;506
1.65;1000;472;506
1.651;1000;475;506
1.652;1000;479;508
1.653;1000;484;507
1.654;1000;491;510
1.655;1000;499;505
1.656;1000;509;505
1.657;1000;519;510
1.658;1000;529;507
1.659;1000;542;508
1.66;1000;555;505
1.661;1000;568;505
1.662;1000;580;508
1.663;1000;595;508
1.664;1000;611;505
1.665;1000;630;504
1.666;1000;646;505
1.667;1000;661;508
1.668;1000;677;507
1.669;1000;690;504
1.67;1000;702;509
1.671;1000;711;505
1.672;1000;722;508
1.673;1000;733;509
1.674;1000;744;505
1.675;1000;757;504
1.676;1000;768;504
1.677;1000;771;507
1.678;1000;771;508
1.679;1000;771;506
1.68;1000;766;505
1.681;1000;752;504
1.682;1000;733;504
1.683;1000;708;509
1.684;1000;678;507
1.685;1000;648;504
1.686;1000;618;505
1.687;1000;587;509
1.688;1000;558;506
1.689;1000;533;507
1.69;1000;511;505
1.691;1000;494;504
1.692;1000;483;506
1.693;1000;475;508
1.694;1000;465;504
1.695;1000;457;504
1.696;1000;453;504
1.697;1000;452;507
1.698;1000;451;507
1.699;1000;449;505
1.7;1000;450;504
1.701;1000;451;505
1.702;1000;452;509
1.703;1000;452;506
1.704;1000;451;509
1.705;1000;451;504
1.706;1000;451;506
1.707;1000;449;507
1.708;1000;446;508
1.709;1000;444;507
1.71;1000;444;505
1.711;1000;442;505
1.712;1000;441;507
1.713;1000;440;507
1.714;1000;442;507
1.715;1000;443;505
1.716;1000;446;506
1.717;1000;450;508
1.718;1000;453;508
1.719;1000;453;508
1.72;1000;454;507
1.721;1000;458;508
1.722;1000;460;505
1.723;1000;459;511
1.724;1000;459;508
1.725;1000;460;506
1.726;1000;463;506
1.727;1000;465;509
1.728;1000;464;510
1.729;1000;462;509
1.73;1000;463;507
1.731;1000;463;507
1.732;1000;462;507
1.733;1000;460;511
1.734;1000;462;509
1.735;1000;463;509
1.736;1000;463;509
1.737;1000;463;507
1.738;1000;464;512
1.739;1000;468;506
1.74;1000;469;508
1.741;1000;470;508
1.742;1000;472;510
1.743;1000;472;511
1.744;1000;471;510
1.745;1000;469;508
1.746;1000;469;508
1.747;1000;471;510
1.748;1000;472;509
1.749;1000;471;513
1.75;1000;472;509
1.751;1000;475;510
1.752;1000;479;514
1.753;1000;478;510
1.754;1000;475;513
1.755;1000;472;508
1.756;1000;472;508
1.757;1000;474;511
1.758;1000;475;512
1.759;1000;474;511
1.76;1000;477;509
1.761;1000;480;509
1.762;1000;481;511
1.763;1000;482;510
1.764;1000;483;514
1.765;1000;485;510
1.766;1000;487;511
1.767;1000;488;511
1.768;1000;486;514
1.769;1000;485;513
1.77;1000;480;512
1.771;1000;478;511
1.772;1000;479;513
1.773;1000;480;515
1.774;1000;481;513
1.775;1000;482;511
1.776;1000;485;511
1.777;1000;489;513
1.778;1000;491;513
1.779;1000;493;517
1.78;1000;495;512
1.781;1000;496;513
1.782;1000;499;515
1.783;1000;498;515
1.784;1000;497;512
1.785;1000;497;512
1.786;1000;496;512
1.787;1000;496;515
1.788;1000;497;512
1.789;1000;498;511
1.79;1000;497;511
1.791;1000;499;511
1.792;1000;499;513
1.793;1000;500;514
1.794;1000;499;511
1.795;1000;496;512
1.796;1000;494;512
1.797;1000;494;514
1.798;1000;496;515
1.799;1000;496;511
1.8;1000;499;512
1.801;1000;501;511
1.802;1000;502;514
1.803;1000;502;513
1.804;1000;499;510
1.805;1000;499;510
1.806;1000;500;511
1.807;1000;501;511
1.808;1000;501;515
1.809;1000;500;513
1.81;1000;500;512
1.811;1000;498;513
1.812;1000;497;512
1.813;1000;497;515
1.814;1000;497;512
1.815;1000;498;513
1.816;1000;502;513
1.817;1000;504;513
1.818;1000;504;516
1.819;1000;504;514
1.82;1000;506;513
1.821;1000;508;513
1.822;1000;507;515
1.823;1000;508;517
1.824;1000;510;515
1.825;1000;512;513
1.826;1000;514;513
1.827;1000;515;513
1.828;1000;514;518
1.829;1000;511;516
1.83;1000;510;517
1.831;1000;508;513
1.832;1000;508;512
1.833;1000;509;518
1.834;1000;510;516
1.835;1000;513;513
1.836;1000;512;514
1.837;1000;512;515
1.838;1000;513;517
1.839;1000;515;513
1.84;1000;515;513
1.841;1000;517;514
1.842;1000;520;516
1.843;1000;524;516
1.844;1000;524;513
1.845;1000;522;514
1.846;1000;520;514
1.847;1000;519;519
1.848;1000;519;515
1.849;1000;518;518
1.85;1000;519;513
1.851;1000;520;513
1.852;1000;519;515
1.853;1000;521;515
1.854;1000;522;514
1.855;1000;522;517
1.856;1000;523;513
1.857;1000;524;513
1.858;1000;525;518
1.859;1000;527;516
1.86;1000;528;513
1.861;1000;531;515
1.862;1000;533;516
1.863;1000;535;515
1.864;1000;536;518
1.865;1000;538;513
1.866;1000;538;514
1.867;1000;539;516
1.868;1000;538;518
1.869;1000;539;516
1.87;1000;539;513
1.871;1000;538;514
1.872;1000;540;516
1.873;1000;541;518
1.874;1000;541;513
1.875;1000;540;514
1.876;1000;542;514
1.877;1000;542;516
1.878;1000;543;515
1.879;1000;543;519
1.88;1000;544;514
1.881;1000;546;514
1.882;1000;548;519
1.883;1000;550;515
1.884;1000;551;517
1.885;1000;551;514
1.886;1000;553;514
1.887;1000;553;517
1.888;1000;555;519
1.889;1000;556;514
1.89;1000;557;515
1.891;1000;557;515
1.892;1000;556;518
1.893;1000;556;517
1.894;1000;558;520
1.895;1000;560;515
1.896;1000;562;517
1.897;1000;563;518
1.898;1000;562;519
1.899;1000;563;518
1.9;1000;565;516
1.901;1000;566;516
1.902;1000;566;519
1.903;1000;560;519
1.904;1000;557;519
1.905;1000;556;517
1.906;1000;555;518
1.907;1000;556;519
1.908;1000;558;520
1.909;1000;561;520
1.91;1000;563;520
1.911;1000;563;520
1.912;1000;560;519
1.913;1000;559;525
1.914;1000;558;521
1.915;1000;558;520
1.916;1000;559;521
1.917;1000;561;524
1.918;1000;559;525
1.919;1000;555;524
1.92;1000;556;523
1.921;1000;558;523
1.922;1000;558;523
1.923;1000;556;528
1.924;1000;556;527
1.925;1000;555;525
1.926;1000;553;525
1.927;1000;555;528
1.928;1000;551;529
1.929;1000;544;530
1.93;1000;539;528
1.931;1000;537;527
1.932;1000;534;530
1.933;1000;529;531
1.934;1000;528;528
1.935;1000;526;529
1.936;1000;524;529
1.937;1000;525;532
1.938;1000;525;534
1.939;1000;522;531
1.94;1000;519;532
1.941;1000;517;533
1.942;1000;516;537
1.943;1000;517;535
1.944;1000;517;539
1.945;1000;514;534
1.946;1000;509;535
1.947;1000;505;537
1.948;1000;501;540
1.949;1000;499;538
1.95;1000;498;536
1.951;1000;495;537
1.952;1000;491;540
1.953;1000;488;542
1.954;1000;486;539
1.955;1000;484;540
1.956;1000;483;540
1.957;1000;483;543
1.958;1000;482;543
1.959;1000;480;545
1.96;1000;476;543
1.961;1000;476;543
1.962;1000;479;548
1.963;1000;478;545
1.964;1000;477;547
1.965;1000;476;544
1.966;1000;473;545
1.967;1000;471;548
1.968;1000;469;550
1.969;1000;466;549
1.97;1000;464;547
1.971;1000;464;547
1.972;1000;462;547
1.973;1000;458;552
1.974;1000;457;551
1.975;1000;460;549
1.976;1000;461;550
1.977;1000;460;552
1.978;1000;459;551
1.979;1000;459;555
1.98;1000;460;551
1.981;1000;460;552
1.982;1000;459;554
1.983;1000;458;554
1.984;1000;460;551
1.985;1000;461;552
1.986;1000;460;553
1.987;1000;461;556
1.988;1000;462;555
1.989;1000;464;553
1.99;1000;463;555
1.991;1000;462;555
1.992;1000;461;556
1.993;1000;460;558
1.994;1000;459;556
1.995;1000;461;553
1.996;1000;462;553
1.997;1000;460;555
1.998;1000;456;556
1.999;1000;455;555
2;1000;459;552
2.001;1000;463;553
2.002;1000;464;555
2.003;1000;466;555
2.004;1000;464;554
2.005;1000;464;553
2.006;1000;463;553
2.007;1000;465;552
2.008;1000;464;557
2.009;1000;462;552
2.01;1000;461;551
2.011;1000;460;549
2.012;1000;457;552
2.013;1000;457;553
2.014;1000;459;551
2.015;1000;460;548
2.016;1000;461;548
2.017;1000;462;550
2.018;1000;461;550
2.019;1000;461;547
2.02;1000;460;547
2.021;1000;462;547
2.022;1000;460;546
2.023;1000;459;550
2.024;1000;461;547
2.025;1000;462;549
2.026;1000;461;544
2.027;1000;462;543
2.028;1000;465;547
2.029;1000;468;544
2.03;1000;470;542
2.031;1000;469;541
2.032;1000;469;543
2.033;1000;469;544
2.034;1000;469;539
2.035;1000;471;539
2.036;1000;473;539
2.037;1000;473;540
2.038;1000;470;539
2.039;1000;470;537
2.04;1000;471;536
2.041;1000;468;536
2.042;1000;469;539
2.043;1000;471;535
2.044;1000;471;537
2.045;1000;475;533
2.046;1000;477;533
2.047;1000;475;535
2.048;1000;475;536
2.049;1000;473;532
2.05;1000;471;531
2.051;1000;467;531
2.052;1000;465;531
2.053;1000;468;530
2.054;1000;471;532
2.055;1000;470;527
2.056;1000;470;527
2.057;1000;472;529
2.058;1000;473;529
2.059;1000;474;526
2.06;1000;476;523
2.061;1000;479;523
2.062;1000;481;524
2.063;1000;482;525
2.064;1000;481;521
2.065;1000;481;520
2.066;1000;480;519
2.067;1000;479;521
2.068;1000;478;519
2.069;1000;476;523
2.07;1000;476;518
2.071;1000;475;516
2.072;1000;474;521
2.073;1000;473;516
2.074;1000;473;517
2.075;1000;474;513
2.076;1000;476;512
2.077;1000;478;515
2.078;1000;480;515
2.079;1000;482;511
2.08;1000;481;510
2.081;1000;481;510
2.082;1000;482;512
2.083;1000;484;512
2.084;1000;482;508
2.085;1000;482;507
2.086;1000;481;508
2.087;1000;481;512
2.088;1000;481;508
2.089;1000;480;511
2.09;1000;476;505
2.091;1000;476;505
2.092;1000;475;505
2.093;1000;472;505
2.094;1000;474;506
2.095;1000;475;502
2.096;1000;476;502
2.097;1000;477;504
2.098;1000;480;505
2.099;1000;483;502
2.1;1000;483;501
2.101;1000;483;501
2.102;1000;483;502
2.103;1000;484;501
2.104;1000;483;504
2.105;1000;483;499
2.106;1000;482;499
2.107;1000;480;501
2.108;1000;480;502
2.109;1000;480;501
2.11;1000;478;498
2.111;1000;479;499
2.112;1000;483;500
2.113;1000;490;502
2.114;1000;493;497
2.115;1000;495;497
2.116;1000;496;497
2.117;1000;494;499
2.118;1000;491;498
2.119;1000;487;501
2.12;1000;484;497
2.121;1000;486;497
2.122;1000;490;500
2.123;1000;492;496
2.124;1000;491;499
2.125;1000;491;495
2.126;1000;488;495
2.127;1000;487;497
2.128;1000;487;498
2.129;1000;485;497
2.13;1000;484;494
2.131;1000;484;495
2.132;1000;483;494
2.133;1000;484;498
2.134;1000;486;497
2.135;1000;489;494
2.136;1000;490;495
2.137;1000;490;499
2.138;1000;491;496
2.139;1000;491;497
2.14;1000;491;494
2.141;1000;492;495
2.142;1000;493;497
2.143;1000;496;499
2.144;1000;496;494
2.145;1000;496;495
2.146;1000;496;496
2.147;1000;495;499
2.148;1000;495;498
2.149;1000;494;495
2.15;1000;491;499
2.151;1000;488;497
2.152;1000;484;499
2.153;1000;482;501
2.154;1000;483;499
2.155;1000;490;496
2.156;1000;496;496
2.157;1000;496;499
2.158;1000;496;499
2.159;1000;497;499
2.16;1000;500;497
2.161;1000;500;497
2.162;1000;501;500
2.163;1000;502;500
2.164;1000;499;500
2.165;1000;496;499
2.166;1000;498;500
2.167;1000;499;499
2.168;1000;497;504
2.169;1000;498;500
2.17;1000;499;498
2.171;1000;499;498
2.172;1000;500;502
2.173;1000;501;504
2.174;1000;500;503
2.175;1000;501;499
2.176;1000;504;500
2.177;1000;505;503
2.178;1000;504;503
2.179;1000;506;501
2.18;1000;506;502
2.181;1000;506;503
2.182;1000;504;502
2.183;1000;502;507
2.184;1000;503;504
2.185;1000;503;508
2.186;1000;504;504
2.187;1000;504;503
2.188;1000;503;508
2.189;1000;503;506
2.19;1000;506;504
2.191;1000;507;504
2.192;1000;505;508
2.193;1000;506;510
2.194;1000;506;506
2.195;1000;507;506
2.196;1000;508;507
2.197;1000;508;509
2.198;1000;508;510
2.199;1000;506;508
2.2;1000;505;508
2.201;1000;507;509
2.202;1000;508;509
2.203;1000;510;514
2.204;1000;510;512
2.205;1000;509;513
2.206;1000;509;511
2.207;1000;507;514
2.208;1000;507;513
2.209;1000;507;517
2.21;1000;506;513
2.211;1000;506;513
2.212;1000;507;513
2.213;1000;506;518
2.214;1000;509;515
2.215;1000;511;519
2.216;1000;510;515
2.217;1000;513;517
2.218;1000;517;519
2.219;1000;516;518
2.22;1000;515;515
2.221;1000;516;516
2.222;1000;515;519
2.223;1000;514;519
2.224;1000;515;519
2.225;1000;514;516
2.226;1000;513;518
2.227;1000;513;520
2.228;1000;513;520
2.229;1000;514;519
2.23;1000;513;519
2.231;1000;511;520
2.232;1000;508;519
2.233;1000;506;524
2.234;1000;508;521
2.235;1000;511;519
2.236;1000;514;519
2.237;1000;517;522
2.238;1000;518;524
2.239;1000;516;522
2.24;1000;515;519
2.241;1000;515;520
2.242;1000;515;521
2.243;1000;519;525
2.244;1000;519;524
2.245;1000;517;522
2.246;1000;515;522
2.247;1000;514;524
2.248;1000;513;524
2.249;1000;515;525
2.25;1000;515;523
2.251;1000;516;521
2.252;1000;516;524
2.253;1000;515;525
2.254;1000;515;522
2.255;1000;516;522
2.256;1000;515;523
2.257;1000;512;524
2.258;1000;513;525
2.259;1000;515;522
2.26;1000;515;522
2.261;1000;514;523
2.262;1000;514;526
2.263;1000;514;524
2.264;1000;513;527
2.265;1000;510;521
2.266;1000;510;522
2.267;1000;513;525
2.268;1000;516;526
2.269;1000;521;524
2.27;1000;524;521
2.271;1000;524;522
2.272;1000;526;524
2.273;1000;526;526
2.274;1000;527;522
2.275;1000;527;522
2.276;1000;525;522
2.277;1000;525;524
2.278;1000;527;524
2.279;1000;528;525
2.28;1000;530;523
2.281;1000;531;523
2.282;1000;531;527
2.283;1000;530;523
2.284;1000;529;525
2.285;1000;526;521
2.286;1000;526;522
2.287;1000;526;524
2.288;1000;526;525
2.289;1000;527;523
2.29;1000;527;521
2.291;1000;526;520
2.292;1000;526;521
2.293;1000;524;525
2.294;1000;523;524
2.295;1000;521;521
2.296;1000;519;521
2.297;1000;521;525
2.298;1000;522;522
2.299;1000;522;523
2.3;1000;523;520
2.301;1000;523;521
2.302;1000;519;522
2.303;1000;518;522
2.304;1000;519;522
2.305;1000;522;520
2.306;1000;521;519
2.307;1000;518;523
2.308;1000;515;521
2.309;1000;515;519
2.31;1000;513;522
2.311;1000;510;520
2.312;1000;507;521
2.313;1000;506;523
2.314;1000;505;521
2.315;1000;504;518
2.316;1000;505;518
2.317;1000;507;520
2.318;1000;505;520
2.319;1000;504;520
2.32;1000;507;517
2.321;1000;511;518
2.322;1000;512;519
2.323;1000;511;519
2.324;1000;511;518
2.325;1000;511;518
2.326;1000;511;517
2.327;1000;511;516
2.328;1000;509;521
2.329;1000;508;517
2.33;1000;508;515
2.331;1000;508;514
2.332;1000;508;516
2.333;1000;508;518
2.334;1000;506;516
2.335;1000;504;513
2.336;1000;505;513
2.337;1000;505;515
2.338;1000;505;515
2.339;1000;505;513
2.34;1000;505;513
2.341;1000;508;513
2.342;1000;510;513
2.343;1000;511;517
2.344;1000;509;513
2.345;1000;507;517
2.346;1000;507;513
2.347;1000;510;513
2.348;1000;512;513
2.349;1000;512;515
2.35;1000;511;511
2.351;1000;508;511
2.352;1000;506;513
2.353;1000;506;514
2.354;1000;508;513
2.355;1000;507;510
2.356;1000;507;511
2.357;1000;508;510
2.358;1000;508;514
2.359;1000;507;513
2.36;1000;504;510
2.361;1000;504;511
2.362;1000;508;515
2.363;1000;511;511
2.364;1000;511;512
2.365;1000;511;509
2.366;1000;510;510
2.367;1000;509;512
2.368;1000;505;513
2.369;1000;502;509
2.37;1000;501;508
2.371;1000;499;509
2.372;1000;499;511
2.373;1000;499;511
2.374;1000;502;508
2.375;1000;503;509
2.376;1000;504;510
2.377;1000;504;513
2.378;1000;505;509
2.379;1000;503;512
2.38;1000;501;509
2.381;1000;499;510
2.382;1000;496;511
2.383;1000;494;511
2.384;1000;491;510
2.385;1000;487;508
2.386;1000;480;508
2.387;1000;475;511
2.388;1000;474;510
2.389;1000;473;510
2.39;1000;476;507
2.391;1000;480;508
2.392;1000;485;508
2.393;1000;489;512
2.394;1000;491;509
2.395;1000;496;507
2.396;1000;504;507
2.397;1000;515;509
2.398;1000;529;511
2.399;1000;545;510
2.4;1000;559;507
2.401;1000;572;507
2.402;1000;585;507
2.403;1000;599;512
2.404;1000;618;510
2.405;1000;638;508
2.406;1000;655;508
2.407;1000;669;510
2.408;1000;684;509
2.409;1000;698;511
2.41;1000;713;508
2.411;1000;726;506
2.412;1000;738;509
2.413;1000;753;509
2.414;1000;764;509
2.415;1000;775;506
2.416;1000;786;507
2.417;1000;796;509
2.418;1000;800;508
2.419;1000;800;511
2.42;1000;799;507
2.421;1000;795;508
2.422;1000;783;509
2.423;1000;761;508
2.424;1000;737;505
2.425;1000;707;505
2.426;1000;670;505
2.427;1000;632;508
2.428;1000;597;507
2.429;1000;569;504
2.43;1000;547;504
2.431;1000;529;505
2.432;1000;511;507
2.433;1000;496;508
2.434;1000;485;505
2.435;1000;477;505
2.436;1000;470;505
2.437;1000;465;508
2.438;1000;461;508
2.439;1000;460;504
2.44;1000;461;505
2.441;1000;462;505
2.442;1000;461;508
2.443;1000;459;506
2.444;1000;457;504
2.445;1000;457;504
2.446;1000;457;504
2.447;1000;455;504
2.448;1000;453;508
2.449;1000;453;506
2.45;1000;450;506
2.451;1000;447;506
2.452;1000;446;505
2.453;1000;449;509
2.454;1000;454;505
2.455;1000;454;507
2.456;1000;452;507
2.457;1000;450;506
2.458;1000;451;509
2.459;1000;453;508
2.46;1000;454;506
2.461;1000;455;507
2.462;1000;456;509
2.463;1000;459;510
2.464;1000;462;509
2.465;1000;466;507
2.466;1000;466;507
2.467;1000;463;507
2.468;1000;463;512
2.469;1000;464;509
2.47;1000;465;510
2.471;1000;465;508
2.472;1000;465;508
2.473;1000;467;513
2.474;1000;469;510
2.475;1000;468;508
2.476;1000;468;508
2.477;1000;468;511
2.478;1000;470;512
2.479;1000;471;508
2.48;1000;475;508
2.481;1000;476;509
2.482;1000;476;511
2.483;1000;475;511
2.484;1000;476;509
2.485;1000;476;509
2.486;1000;475;509
2.487;1000;475;514
2.488;1000;474;511
2.489;1000;474;514
2.49;1000;474;510
2.491;1000;473;510
2.492;1000;473;512
2.493;1000;475;513
2.494;1000;478;512
2.495;1000;477;510
2.496;1000;475;510
2.497;1000;475;512
2.498;1000;478;512
2.499;1000;480;515
2.5;1000;482;511
2.501;1000;483;512
2.502;1000;487;511
2.503;1000;487;515
2.504;1000;487;514
2.505;1000;490;512
2.506;1000;495;511
2.507;1000;494;514
2.508;1000;493;515
2.509;1000;492;514
2.51;1000;492;511
2.511;1000;494;511
2.512;1000;494;514
2.513;1000;494;514
2.514;1000;492;512
2.515;1000;490;512
2.516;1000;488;512
2.517;1000;490;512
2.518;1000;490;517
2.519;1000;492;512
2.52;1000;494;512
2.521;1000;498;512
2.522;1000;498;511
2.523;1000;498;516
2.524;1000;499;513
2.525;1000;499;511
2.526;1000;497;512
2.527;1000;495;513
2.528;1000;495;515
2.529;1000;495;514
2.53;1000;495;511
2.531;1000;495;512
2.532;1000;493;512
2.533;1000;493;517
2.534;1000;496;515
2.535;1000;496;516
2.536;1000;498;513
2.537;1000;502;511
2.538;1000;506;517
2.539;1000;507;515
2.54;1000;508;513
2.541;1000;508;513
2.542;1000;508;515
2.543;1000;509;516
2.544;1000;510;512
2.545;1000;510;512
2.546;1000;508;513
2.547;1000;507;515
2.548;1000;507;515
2.549;1000;507;513
2.55;1000;506;513
2.551;1000;505;513
2.552;1000;506;518
2.553;1000;508;514
2.554;1000;507;518
2.555;1000;507;513
2.556;1000;506;513
2.557;1000;507;515
2.558;1000;508;517
2.559;1000;508;516
2.56;1000;508;513
2.561;1000;510;514
2.562;1000;511;515
2.563;1000;510;515
2.564;1000;508;518
2.565;1000;511;514
2.566;1000;513;514
2.567;1000;511;514
2.568;1000;511;517
2.569;1000;513;517
2.57;1000;513;515
2.571;1000;515;514
2.572;1000;516;516
2.573;1000;517;518
2.574;1000;518;516
2.575;1000;517;513
2.576;1000;519;514
2.577;1000;522;516
2.578;1000;520;516
2.579;1000;520;514
2.58;1000;521;513
2.581;1000;520;514
2.582;1000;521;514
2.583;1000;523;519
2.584;1000;524;515
2.585;1000;525;519
2.586;1000;526;515
2.587;1000;525;516
2.588;1000;524;518
2.589;1000;524;516
2.59;1000;527;513
2.591;1000;527;514
2.592;1000;526;516
2.593;1000;525;516
2.594;1000;526;515
2.595;1000;526;514
2.596;1000;527;515
2.597;1000;528;516
2.598;1000;531;515
2.599;1000;537;518
2.6;1000;539;514
2.601;1000;539;515
2.602;1000;540;516
2.603;1000;542;518
2.604;1000;544;516
2.605;1000;544;513
2.606;1000;543;514
2.607;1000;545;515
2.608;1000;545;517
2.609;1000;546;513
2.61;1000;546;513
2.611;1000;545;514
2.612;1000;544;516
2.613;1000;546;515
2.614;1000;549;518
2.615;1000;551;514
2.616;1000;551;514
2.617;1000;551;518
2.618;1000;551;515
2.619;1000;552;516
2.62;1000;554;513
2.621;1000;557;514
2.622;1000;559;516
2.623;1000;561;517
2.624;1000;563;514
2.625;1000;562;514
2.626;1000;560;513
2.627;1000;559;516
2.628;1000;558;515
2.629;1000;558;519
2.63;1000;559;515
2.631;1000;559;515
2.632;1000;558;519
2.633;1000;560;516
2.634;1000;564;518
2.635;1000;568;515
2.636;1000;569;515
2.637;1000;571;518
2.638;1000;572;519
2.639;1000;571;517
2.64;1000;569;515
2.641;1000;571;515
2.642;1000;571;518
2.643;1000;571;519
2.644;1000;571;516
2.645;1000;571;517
2.646;1000;570;518
2.647;1000;568;518
2.648;1000;568;523
2.649;1000;568;519
2.65;1000;567;521
2.651;1000;564;519
2.652;1000;563;522
2.653;1000;562;524
2.654;1000;562;523
2.655;1000;561;520
2.656;1000;561;521
2.657;1000;564;524
2.658;1000;565;524
2.659;1000;566;524
2.66;1000;564;524
2.661;1000;564;525
2.662;1000;565;524
2.663;1000;563;528
2.664;1000;560;524
2.665;1000;558;527
2.666;1000;556;526
2.667;1000;554;529
2.668;1000;551;531
2.669;1000;546;530
2.67;1000;542;528
2.671;1000;539;529
2.672;1000;536;531
2.673;1000;535;534
2.674;1000;534;531
2.675;1000;532;531
2.676;1000;532;532
2.677;1000;529;535
2.678;1000;526;534
2.679;1000;527;539
2.68;1000;528;535
2.681;1000;526;535
2.682;1000;525;540
2.683;1000;522;537
2.684;1000;519;539
2.685;1000;515;536
2.686;1000;510;538
2.687;1000;506;540
2.688;1000;502;543
2.689;1000;499;540
2.69;1000;497;540
2.691;1000;496;541
2.692;1000;495;544
2.693;1000;495;543
2.694;1000;495;546
2.695;1000;492;542
2.696;1000;488;544
2.697;1000;486;546
2.698;1000;484;548
2.699;1000;483;547
2.7;1000;483;545
2.701;1000;485;546
2.702;1000;487;548
2.703;1000;488;549
2.704;1000;485;549
2.705;1000;481;547
2.706;1000;477;548
2.707;1000;474;551
2.708;1000;473;551
2.709;1000;473;551
2.71;1000;473;551
2.711;1000;473;551
2.712;1000;471;551
2.713;1000;468;556
2.714;1000;466;553
2.715;1000;464;551
2.716;1000;464;551
2.717;1000;465;555
2.718;1000;468;556
2.719;1000;470;555
2.72;1000;467;552
2.721;1000;467;553
2.722;1000;467;552
2.723;1000;467;558
2.724;1000;466;556
2.725;1000;464;554
2.726;1000;463;555
2.727;1000;464;557
2.728;1000;465;556
2.729;1000;465;557
2.73;1000;463;555
2.731;1000;463;554
2.732;1000;464;556
2.733;1000;462;558
2.734;1000;462;556
2.735;1000;463;553
2.736;1000;463;554
2.737;1000;464;556
2.738;1000;466;554
2.739;1000;469;558
2.74;1000;469;553
2.741;1000;472;553
2.742;1000;474;552
2.743;1000;473;557
2.744;1000;471;554
2.745;1000;470;552
2.746;1000;466;551
2.747;1000;466;553
2.748;1000;467;554
2.749;1000;468;552
2.75;1000;469;549
2.751;1000;468;549
2.752;1000;467;551
2.753;1000;468;551
2.754;1000;470;548
2.755;1000;469;547
2.756;1000;469;547
2.757;1000;468;547
2.758;1000;466;551
2.759;1000;464;547
2.76;1000;464;550
2.761;1000;465;546
2.762;1000;468;544
2.763;1000;471;549
2.764;1000;472;546
2.765;1000;473;543
2.766;1000;475;543
2.767;1000;476;544
2.768;1000;477;545
2.769;1000;477;540
2.77;1000;477;540
2.771;1000;476;540
2.772;1000;473;541
2.773;1000;472;540
2.774;1000;471;538
2.775;1000;471;537
2.776;1000;473;537
2.777;1000;474;541
2.778;1000;474;536
2.779;1000;474;539
2.78;1000;476;534
2.781;1000;479;534
2.782;1000;480;536
2.783;1000;479;536
2.784;1000;479;535
2.785;1000;481;531
2.786;1000;483;531
2.787;1000;481;533
2.788;1000;478;531
2.789;1000;474;528
2.79;1000;472;529
2.791;1000;473;528
2.792;1000;475;527
2.793;1000;474;530
2.794;1000;474;529
2.795;1000;475;525
2.796;1000;476;525
2.797;1000;478;526
2.798;1000;480;527
2.799;1000;481;525
2.8;1000;483;522
2.801;1000;482;521
2.802;1000;482;520
2.803;1000;483;524
2.804;1000;484;523
2.805;1000;483;519
2.806;1000;483;519
2.807;1000;482;523
2.808;1000;478;519
2.809;1000;478;519
2.81;1000;480;516
2.811;1000;480;515
2.812;1000;482;516
2.813;1000;484;517
2.814;1000;486;512
2.815;1000;486;512
2.816;1000;486;512
2.817;1000;487;513
2.818;1000;485;513
2.819;1000;482;510
2.82;1000;484;509
2.821;1000;485;509
2.822;1000;484;513
2.823;1000;483;509
2.824;1000;484;511
2.825;1000;483;506
2.826;1000;481;508
2.827;1000;483;508
2.828;1000;485;509
2.829;1000;486;507
2.83;1000;486;504
2.831;1000;487;504
2.832;1000;486;506
2.833;1000;485;505
2.834;1000;484;505
2.835;1000;485;502
2.836;1000;486;502
2.837;1000;484;504
2.838;1000;482;504
2.839;1000;482;500
2.84;1000;483;501
2.841;1000;487;501
2.842;1000;490;499
2.843;1000;492;504
2.844;1000;492;502
2.845;1000;494;504
2.846;1000;493;499
2.847;1000;493;501
2.848;1000;494;500
2.849;1000;493;503
2.85;1000;492;499
2.851;1000;488;499
2.852;1000;485;499
2.853;1000;484;502
2.854;1000;484;499
2.855;1000;484;502
2.856;1000;485;498
2.857;1000;486;500
2.858;1000;486;502
2.859;1000;485;499
2.86;1000;486;496
2.861;1000;490;497
2.862;1000;494;499
2.863;1000;497;498
2.864;1000;497;498
2.865;1000;497;496
2.866;1000;496;496
2.867;1000;494;497
2.868;1000;492;499
2.869;1000;493;497
2.87;1000;494;496
2.871;1000;492;498
2.872;1000;490;496
2.873;1000;490;500
2.874;1000;491;498
2.875;1000;492;496
2.876;1000;494;496
2.877;1000;495;498
2.878;1000;494;500
2.879;1000;491;498
2.88;1000;491;496
2.881;1000;491;496
2.882;1000;494;496
2.883;1000;498;500
2.884;1000;500;499
2.885;1000;503;497
2.886;1000;504;497
2.887;1000;503;499
2.888;1000;500;499
2.889;1000;497;500
2.89;1000;497;498
2.891;1000;496;497
2.892;1000;496;499
2.893;1000;497;501
2.894;1000;495;497
2.895;1000;493;497
2.896;1000;494;497
2.897;1000;495;500
2.898;1000;495;500
2.899;1000;495;498
2.9;1000;498;498
2.901;1000;501;499
2.902;1000;502;504
2.903;1000;503;500
2.904;1000;503;504
2.905;1000;504;498
2.906;1000;503;499
2.907;1000;501;502
2.908;1000;501;503
2.909;1000;500;502
2.91;1000;500;499
2.911;1000;499;500
2.912;1000;497;502
2.913;1000;498;504
2.914;1000;501;500
2.915;1000;502;501
2.916;1000;506;502
2.917;1000;506;504
2.918;1000;506;504
2.919;1000;505;504
2.92;1000;505;504
2.921;1000;506;503
2.922;1000;508;508
2.923;1000;508;505
2.924;1000;507;507
2.925;1000;508;504
2.926;1000;507;504
2.927;1000;504;507
2.928;1000;503;509
2.929;1000;504;508
2.93;1000;505;505
2.931;1000;505;506
2.932;1000;507;506
2.933;1000;512;511
2.934;1000;515;510
2.935;1000;516;507
2.936;1000;515;508
2.937;1000;515;512
2.938;1000;513;510
2.939;1000;512;512
2.94;1000;512;508
2.941;1000;512;510
2.942;1000;513;512
2.943;1000;515;514
2.944;1000;516;510
2.945;1000;517;510
2.946;1000;516;511
2.947;1000;515;511
2.948;1000;515;516
2.949;1000;513;514
2.95;1000;511;514
2.951;1000;511;514
2.952;1000;510;513
2.953;1000;511;518
2.954;1000;512;516
2.955;1000;513;513
2.956;1000;516;514
2.957;1000;518;516
2.958;1000;517;518
2.959;1000;516;514
2.96;1000;516;515
2.961;1000;516;515
2.962;1000;518;518
2.963;1000;520;518
2.964;1000;520;516
2.965;1000;519;516
2.966;1000;516;517
2.967;1000;515;522
2.968;1000;516;518
2.969;1000;515;522
2.97;1000;515;517
2.971;1000;515;518
2.972;1000;514;520
2.973;1000;514;522
2.974;1000;515;520
2.975;1000;512;518
2.976;1000;512;519
2.977;1000;513;521
2.978;1000;514;521
2.979;1000;514;524
2.98;1000;517;520
2.981;1000;518;521
2.982;1000;519;520
2.983;1000;519;524
2.984;1000;519;523
2.985;1000;519;521
2.986;1000;519;521
2.987;1000;519;524
2.988;1000;518;525
2.989;1000;519;523
2.99;1000;519;520
2.991;1000;519;521
2.992;1000;517;524
2.993;1000;515;524
2.994;1000;515;521
2.995;1000;514;521
2.996;1000;513;522
2.997;1000;515;521
2.998;1000;517;526
2.999;1000;519;523
3;1000;520;527
3.001;1000;522;523
3.002;1000;524;524
3.003;1000;524;526
3.004;1000;523;524
3.005;1000;521;522
3.006;1000;521;523
3.007;1000;522;524
3.008;1000;524;525
3.009;1000;524;525
3.01;1000;522;522
3.011;1000;519;523
3.012;1000;517;524
3.013;1000;515;525
3.014;1000;517;524
3.015;1000;518;524
3.016;1000;520;524
3.017;1000;522;522
3.018;1000;524;527
3.019;1000;525;520
3.02;1000;524;523
3.021;1000;525;522
3.022;1000;526;524
3.023;1000;524;525
3.024;1000;521;524
3.025;1000;521;521
3.026;1000;522;522
3.027;1000;520;523
3.028;1000;519;522
3.029;1000;518;526
3.03;1000;518;521
3.031;1000;518;521
3.032;1000;518;524
3.033;1000;520;525
3.034;1000;521;522
3.035;1000;520;523
3.036;1000;521;521
3.037;1000;522;523
3.038;1000;523;524
3.039;1000;524;523
3.04;1000;525;520
3.041;1000;527;521
3.042;1000;529;520
3.043;1000;530;524
3.044;1000;530;523
3.045;1000;530;520
3.046;1000;531;520
3.047;1000;535;522
3.048;1000;536;521
3.049;1000;533;522
3.05;1000;530;520
3.051;1000;528;519
3.052;1000;524;520
3.053;1000;522;520
3.054;1000;520;520
3.055;1000;520;518
3.056;1000;521;518
3.057;1000;521;520
3.058;1000;521;519
3.059;1000;525;521
3.06;1000;527;517
3.061;1000;528;518
3.062;1000;528;519
3.063;1000;527;519
3.064;1000;528;515
3.065;1000;526;515
3.066;1000;527;515
3.067;1000;527;517
3.068;1000;526;515
3.069;1000;522;513
3.07;1000;519;513
3.071;1000;516;513
3.072;1000;515;515
3.073;1000;514;515
3.074;1000;512;513
3.075;1000;510;512
3.076;1000;508;513
3.077;1000;506;515
3.078;1000;507;515
3.079;1000;508;512
3.08;1000;507;511
3.081;1000;508;512
3.082;1000;509;514
3.083;1000;510;511
3.084;1000;509;510
3.085;1000;509;508
3.086;1000;508;510
3.087;1000;509;509
3.088;1000;507;512
3.089;1000;504;511
3.09;1000;503;510
3.091;1000;505;510
3.092;1000;505;509
3.093;1000;510;512
3.094;1000;511;508
3.095;1000;510;509
3.096;1000;512;510
3.097;1000;511;508
3.098;1000;509;512
3.099;1000;508;510
3.1;1000;506;507
3.101;1000;508;508
3.102;1000;508;510
3.103;1000;506;511
3.104;1000;505;510
3.105;1000;504;507
3.106;1000;504;508
3.107;1000;505;507
3.108;1000;505;512
3.109;1000;507;509
3.11;1000;506;509
3.111;1000;505;508
3.112;1000;504;507
3.113;1000;503;511
3.114;1000;502;509
3.115;1000;505;507
3.116;1000;507;507
3.117;1000;507;509
3.118;1000;507;511
3.119;1000;507;506
3.12;1000;507;506
3.121;1000;509;507
3.122;1000;510;509
3.123;1000;510;508
3.124;1000;506;506
3.125;1000;506;506
3.126;1000;507;506
3.127;1000;506;511
3.128;1000;505;508
3.129;1000;505;511
3.13;1000;505;506
3.131;1000;504;507
3.132;1000;499;508
3.133;1000;497;510
3.134;1000;499;508
3.135;1000;500;506
3.136;1000;502;507
3.137;1000;503;508
3.138;1000;506;507
3.139;1000;509;511
3.14;1000;512;506
3.141;1000;512;507
3.142;1000;513;506
3.143;1000;512;510
3.144;1000;512;509
3.145;1000;513;507
3.146;1000;511;507
3.147;1000;508;509
3.148;1000;509;510
3.149;1000;510;508
3.15;1000;510;506
3.151;1000;507;506
3.152;1000;503;508
3.153;1000;500;508
3.154;1000;499;506
3.155;1000;496;506
3.156;1000;492;507
3.157;1000;489;506
3.158;1000;487;511
3.159;1000;485;508
3.16;1000;481;511
3.161;1000;480;507
3.162;1000;480;508
3.163;1000;482;510
3.164;1000;485;509
3.165;1000;487;506
3.166;1000;491;507
3.167;1000;494;509
3.168;1000;495;508
3.169;1000;501;508
3.17;1000;512;507
3.171;1000;526;508
3.172;1000;537;510
3.173;1000;547;509
3.174;1000;555;511
3.175;1000;565;507
3.176;1000;577;508
3.177;1000;590;510
3.178;1000;605;511
3.179;1000;624;509
3.18;1000;645;507
3.181;1000;661;508
3.182;1000;679;509
3.183;1000;697;511
3.184;1000;711;507
3.185;1000;723;507
3.186;1000;735;508
3.187;1000;748;510
3.188;1000;761;509
3.189;1000;774;513
3.19;1000;786;508
3.191;1000;796;508
3.192;1000;798;513
3.193;1000;795;509
3.194;1000;792;510
3.195;1000;787;508
3.196;1000;775;508
3.197;1000;757;510
3.198;1000;730;512
3.199;1000;700;508
3.2;1000;672;508
3.201;1000;641;508
3.202;1000;608;510
3.203;1000;580;511
3.204;1000;554;508
3.205;1000;535;508
3.206;1000;519;509
3.207;1000;508;513
3.208;1000;500;510
3.209;1000;493;513
3.21;1000;484;508
3.211;1000;478;510
3.212;1000;471;511
3.213;1000;463;513
3.214;1000;459;508
3.215;1000;458;509
3.216;1000;459;509
3.217;1000;458;511
3.218;1000;456;513
3.219;1000;454;511
3.22;1000;453;509
3.221;1000;454;509
3.222;1000;454;511
3.223;1000;454;513
3.224;1000;453;509
3.225;1000;451;509
3.226;1000;450;510
3.227;1000;450;511
3.228;1000;451;511
3.229;1000;452;515
3.23;1000;454;511
3.231;1000;455;510
3.232;1000;455;511
3.233;1000;456;515
3.234;1000;457;513
3.235;1000;463;511
3.236;1000;468;512
3.237;1000;468;514
3.238;1000;466;512
3.239;1000;466;515
3.24;1000;465;511
3.241;1000;464;512
3.242;1000;465;514
3.243;1000;467;516
3.244;1000;467;514
3.245;1000;467;511
3.246;1000;470;512
3.247;1000;475;514
3.248;1000;476;516
3.249;1000;472;512
3.25;1000;468;512
3.251;1000;466;512
3.252;1000;463;515
3.253;1000;466;514
3.254;1000;469;518
3.255;1000;472;513
3.256;1000;472;513
3.257;1000;472;518
3.258;1000;472;514
3.259;1000;473;512
3.26;1000;475;512
3.261;1000;475;513
3.262;1000;473;515
3.263;1000;472;517
3.264;1000;476;515
3.265;1000;479;512
3.266;1000;480;513
3.267;1000;480;515
3.268;1000;480;514
3.269;1000;480;515
3.27;1000;481;514
3.271;1000;482;513
3.272;1000;483;513
3.273;1000;484;517
3.274;1000;486;512
3.275;1000;485;512
3.276;1000;485;512
3.277;1000;487;515
3.278;1000;487;515
3.279;1000;486;515
3.28;1000;488;512
3.281;1000;491;514
3.282;1000;492;512
3.283;1000;490;517
3.284;1000;489;516
3.285;1000;489;512
3.286;1000;489;513
3.287;1000;489;515
3.288;1000;488;517
3.289;1000;486;515
3.29;1000;483;514
3.291;1000;485;512
3.292;1000;487;514
3.293;1000;487;516
3.294;1000;488;515
3.295;1000;492;512
3.296;1000;496;513
3.297;1000;497;515
3.298;1000;497;515
3.299;1000;497;514
3.3;1000;499;512
3.301;1000;502;513
3.302;1000;503;515
3.303;1000;500;514
3.304;1000;497;516
3.305;1000;496;512
3.306;1000;496;513
3.307;1000;498;515
3.308;1000;500;517
3.309;1000;499;515
3.31;1000;496;512
3.311;1000;496;513
3.312;1000;497;514
3.313;1000;497;517
3.314;1000;495;512
3.315;1000;496;512
3.316;1000;499;513
3.317;1000;500;515
3.318;1000;500;514
3.319;1000;500;517
3.32;1000;502;513
3.321;1000;504;512
3.322;1000;506;518
3.323;1000;504;513
3.324;1000;503;515
3.325;1000;503;512
3.326;1000;504;512
3.327;1000;502;515
3.328;1000;501;516
3.329;1000;500;512
3.33;1000;501;511
3.331;1000;502;512
3.332;1000;503;516
3.333;1000;504;514
3.334;1000;501;511
3.335;1000;500;513
3.336;1000;502;513
3.337;1000;503;515
3.338;1000;505;517
3.339;1000;509;514
3.34;1000;514;511
3.341;1000;516;512
3.342;1000;515;514
3.343;1000;514;513
3.344;1000;513;513
3.345;1000;512;511
3.346;1000;514;512
3.347;1000;513;513
3.348;1000;514;513
3.349;1000;515;513
3.35;1000;515;513
3.351;1000;513;513
3.352;1000;513;511
3.353;1000;515;516
3.354;1000;518;513
3.355;1000;520;510
3.356;1000;520;511
3.357;1000;519;513
3.358;1000;519;515
3.359;1000;520;510
3.36;1000;521;510
3.361;1000;522;511
3.362;1000;521;510
3.363;1000;521;515
3.364;1000;524;514
3.365;1000;527;511
3.366;1000;527;512
3.367;1000;527;513
3.368;1000;529;513
3.369;1000;528;514
3.37;1000;526;511
3.371;1000;526;512
3.372;1000;527;513
3.373;1000;528;515
3.374;1000;529;511
3.375;1000;529;510
3.376;1000;529;512
3.377;1000;531;513
3.378;1000;533;513
3.379;1000;536;510
3.38;1000;539;510
3.381;1000;542;511
3.382;1000;543;515
3.383;1000;544;512
3.384;1000;545;514
3.385;1000;546;509
3.386;1000;546;511
3.387;1000;546;512
3.388;1000;545;514
3.389;1000;544;512
3.39;1000;543;509
3.391;1000;543;511
3.392;1000;543;512
3.393;1000;546;515
3.394;1000;549;510
3.395;1000;551;510
3.396;1000;550;510
3.397;1000;552;512
3.398;1000;552;512
3.399;1000;551;512
3.4;1000;554;511
3.401;1000;554;511
3.402;1000;555;515
3.403;1000;557;512
3.404;1000;560;515
3.405;1000;563;510
3.406;1000;564;512
3.407;1000;565;514
3.408;1000;568;516
3.409;1000;571;514
3.41;1000;571;511
3.411;1000;566;513
3.412;1000;561;513
3.413;1000;559;518
3.414;1000;560;516
3.415;1000;563;514
3.416;1000;564;515
3.417;1000;564;520
3.418;1000;566;516
3.419;1000;568;518
3.42;1000;569;515
3.421;1000;569;517
3.422;1000;568;519
3.423;1000;568;521
3.424;1000;568;518
3.425;1000;568;518
3.426;1000;567;519
3.427;1000;567;523
3.428;1000;564;522
3.429;1000;560;520
3.43;1000;557;522
3.431;1000;555;523
3.432;1000;552;525
3.433;1000;551;528
3.434;1000;551;527
3.435;1000;554;524
3.436;1000;558;525
3.437;1000;557;527
3.438;1000;556;527
3.439;1000;556;528
3.44;1000;558;526
3.441;1000;558;527
3.442;1000;556;529
3.443;1000;555;531
3.444;1000;553;530
3.445;1000;551;529
3.446;1000;550;531
3.447;1000;546;530
3.448;1000;543;536
3.449;1000;541;534
3.45;1000;538;531
3.451;1000;535;532
3.452;1000;528;535
3.453;1000;521;537
3.454;1000;519;536
3.455;1000;519;533
3.456;1000;519;535
3.457;1000;518;538
3.458;1000;517;538
3.459;1000;514;537
3.46;1000;508;537
3.461;1000;503;538
3.462;1000;501;540
3.463;1000;500;541
3.464;1000;499;544
3.465;1000;495;541
3.466;1000;492;541
3.467;1000;490;546
3.468;1000;488;544
3.469;1000;485;546
3.47;1000;484;542
3.471;1000;484;544
3.472;1000;483;546
3.473;1000;479;549
3.474;1000;476;547
3.475;1000;477;544
3.476;1000;476;546
3.477;1000;473;549
3.478;1000;472;548
3.479;1000;472;549
3.48;1000;471;548
3.481;1000;470;549
3.482;1000;468;553
3.483;1000;467;550
3.484;1000;467;552
3.485;1000;467;551
3.486;1000;466;551
3.487;1000;464;554
3.488;1000;461;556
3.489;1000;457;552
3.49;1000;454;551
3.491;1000;452;553
3.492;1000;454;556
3.493;1000;457;556
3.494;1000;459;553
3.495;1000;460;556
3.496;1000;462;556
3.497;1000;463;558
3.498;1000;462;559
3.499;1000;460;558
3.5;1000;463;554
3.501;1000;462;556
3.502;1000;460;557
3.503;1000;459;557
3.504;1000;459;557
3.505;1000;460;555
3.506;1000;460;555
3.507;1000;461;557
3.508;1000;460;557
3.509;1000;459;556
3.51;1000;458;556
3.511;1000;459;557
3.512;1000;459;554
3.513;1000;459;559
3.514;1000;459;556
3.515;1000;459;553
3.516;1000;460;554
3.517;1000;461;556
3.518;1000;463;557
3.519;1000;463;555
3.52;1000;465;551
3.521;1000;467;551
3.522;1000;464;551
3.523;1000;463;555
3.524;1000;464;553
3.525;1000;462;550
3.526;1000;458;550
3.527;1000;457;552
3.528;1000;458;551
3.529;1000;460;552
3.53;1000;461;548
3.531;1000;462;547
3.532;1000;461;548
3.533;1000;462;550
3.534;1000;464;545
3.535;1000;461;544
3.536;1000;460;545
3.537;1000;459;546
3.538;1000;460;545
3.539;1000;462;543
3.54;1000;464;542
3.541;1000;465;542
3.542;1000;465;545
3.543;1000;462;542
3.544;1000;462;544
3.545;1000;464;538
3.546;1000;464;539
3.547;1000;463;540
3.548;1000;470;542
3.549;1000;472;539
3.55;1000;468;535
3.551;1000;467;536
3.552;1000;467;537
3.553;1000;467;538
3.554;1000;465;533
3.555;1000;469;532
3.556;1000;468;533
3.557;1000;467;534
3.558;1000;468;533
3.559;1000;470;532
3.56;1000;473;531
3.561;1000;472;530
3.562;1000;475;534
3.563;1000;476;529
3.564;1000;475;531
3.565;1000;474;527
3.566;1000;476;527
3.567;1000;477;528
3.568;1000;475;527
3.569;1000;471;524
3.57;1000;470;524
3.571;1000;469;524
3.572;1000;469;522
3.573;1000;469;527
3.574;1000;470;525
3.575;1000;469;521
3.576;1000;469;521
3.577;1000;470;524
3.578;1000;469;521
3.579;1000;468;521
3.58;1000;467;518
3.581;1000;467;519
3.582;1000;468;519
3.583;1000;472;521
3.584;1000;475;516
3.585;1000;479;515
3.586;1000;483;515
3.587;1000;487;516
3.588;1000;488;516
3.589;1000;484;514
3.59;1000;479;513
3.591;1000;473;513
3.592;1000;471;517
3.593;1000;472;512
3.594;1000;473;515
3.595;1000;475;510
3.596;1000;475;511
3.597;1000;476;512
3.598;1000;476;513
3.599;1000;477;511
3.6;1000;479;507
3.601;1000;479;508
3.602;1000;478;509
3.603;1000;477;508
3.604;1000;477;508
3.605;1000;477;506
3.606;1000;478;507
3.607;1000;475;508
3.608;1000;473;506
3.609;1000;472;508
3.61;1000;473;503
3.611;1000;471;504
3.612;1000;470;505
3.613;1000;471;507
3.614;1000;472;505
3.615;1000;474;502
3.616;1000;472;503
3.617;1000;472;503
3.618;1000;476;503
3.619;1000;478;506
3.62;1000;480;501
3.621;1000;486;502
3.622;1000;486;500
3.623;1000;484;504
3.624;1000;483;503
3.625;1000;483;500
3.626;1000;482;500
3.627;1000;481;501
3.628;1000;480;503
3.629;1000;481;500
3.63;1000;480;498
3.631;1000;480;498
3.632;1000;481;500
3.633;1000;483;500
3.634;1000;484;498
3.635;1000;482;497
3.636;1000;479;498
3.637;1000;478;497
3.638;1000;479;502
3.639;1000;480;499
3.64;1000;480;502
3.641;1000;482;498
3.642;1000;483;499
3.643;1000;484;501
3.644;1000;484;499
3.645;1000;483;497
3.646;1000;482;497
3.647;1000;481;499
3.648;1000;483;499
3.649;1000;486;498
3.65;1000;487;498
3.651;1000;487;498
3.652;1000;486;499
3.653;1000;485;499
3.654;1000;484;502
3.655;1000;484;497
3.656;1000;484;499
3.657;1000;483;500
3.658;1000;483;502
3.659;1000;487;500
3.66;1000;490;497
3.661;1000;492;498
3.662;1000;491;500
3.663;1000;491;502
3.664;1000;488;498
3.665;1000;487;498
3.666;1000;488;499
3.667;1000;488;500
3.668;1000;489;500
3.669;1000;490;504
3.67;1000;491;500
3.671;1000;490;499
3.672;1000;488;504
3.673;1000;488;501
3.674;1000;490;499
3.675;1000;493;498
3.676;1000;496;499
3.677;1000;498;501
3.678;1000;497;504
3.679;1000;495;502
3.68;1000;495;499
3.681;1000;496;501
3.682;1000;496;503
3.683;1000;495;502
3.684;1000;494;506
3.685;1000;493;502
3.686;1000;496;502
3.687;1000;497;507
3.688;1000;497;503
3.689;1000;496;506
3.69;1000;498;503
3.691;1000;500;504
3.692;1000;498;506
3.693;1000;495;508
3.694;1000;492;507
3.695;1000;493;504
3.696;1000;492;505
3.697;1000;494;508
3.698;1000;495;508
3.699;1000;496;506
3.7;1000;496;506
3.701;1000;498;507
3.702;1000;500;509
3.703;1000;501;509
3.704;1000;501;507
3.705;1000;502;507
3.706;1000;502;508
3.707;1000;500;508
3.708;1000;499;509
3.709;1000;499;508
3.71;1000;498;508
3.711;1000;497;509
3.712;1000;497;511
3.713;1000;497;511
3.714;1000;497;511
3.715;1000;498;510
3.716;1000;499;512
3.717;1000;502;513
3.718;1000;504;513
3.719;1000;504;510
3.72;1000;505;511
3.721;1000;507;512
3.722;1000;510;514
3.723;1000;512;512
3.724;1000;512;511
3.725;1000;508;511
3.726;1000;505;512
3.727;1000;505;514
3.728;1000;506;515
3.729;1000;506;515
3.73;1000;506;518
3.731;1000;507;515
3.732;1000;505;514
3.733;1000;504;519
3.734;1000;503;518
3.735;1000;500;518
3.736;1000;500;516
3.737;1000;503;515
3.738;1000;506;520
3.739;1000;506;518
3.74;1000;505;520
3.741;1000;505;518
3.742;1000;505;520
3.743;1000;506;522
3.744;1000;508;521
3.745;1000;510;518
3.746;1000;513;519
3.747;1000;515;518
3.748;1000;511;523
3.749;1000;510;522
3.75;1000;511;519
3.751;1000;511;520
3.752;1000;511;523
3.753;1000;508;521
3.754;1000;508;523
3.755;1000;511;520
3.756;1000;514;520
3.757;1000;516;523
3.758;1000;516;524
3.759;1000;513;521
3.76;1000;508;521
3.761;1000;508;521
3.762;1000;509;524
3.763;1000;509;524
3.764;1000;511;522
3.765;1000;511;521
3.766;1000;512;522
3.767;1000;514;526
3.768;1000;513;522
3.769;1000;510;526
3.77;1000;509;521
3.771;1000;508;522
3.772;1000;508;524
3.773;1000;508;526
3.774;1000;510;524
3.775;1000;509;521
3.776;1000;508;523
3.777;1000;509;525
3.778;1000;511;523
3.779;1000;511;527
3.78;1000;512;522
3.781;1000;511;524
3.782;1000;509;522
3.783;1000;508;526
3.784;1000;512;525
3.785;1000;513;522
3.786;1000;512;522
3.787;1000;511;524
3.788;1000;512;525
3.789;1000;512;523
3.79;1000;513;521
3.791;1000;515;521
3.792;1000;515;524
3.793;1000;515;523
3.794;1000;514;521
3.795;1000;511;521
3.796;1000;510;522
3.797;1000;512;521
3.798;1000;512;525
3.799;1000;512;522
3.8;1000;511;526
3.801;1000;513;521
3.802;1000;515;522
3.803;1000;513;524
3.804;1000;510;523
3.805;1000;509;519
3.806;1000;510;520
3.807;1000;509;522
3.808;1000;509;521
3.809;1000;508;520
3.81;1000;510;520
3.811;1000;510;520
3.812;1000;508;522
3.813;1000;507;521
3.814;1000;507;523
3.815;1000;508;519
3.816;1000;507;519
3.817;1000;507;521
3.818;1000;508;522
3.819;1000;508;521
3.82;1000;506;517
3.821;1000;506;518
3.822;1000;505;519
3.823;1000;504;521
3.824;1000;505;518
3.825;1000;508;517
3.826;1000;510;517
3.827;1000;511;519
3.828;1000;513;518
3.829;1000;512;521
3.83;1000;511;517
3.831;1000;510;516
3.832;1000;511;520
3.833;1000;510;516
3.834;1000;510;518
3.835;1000;511;515
3.836;1000;513;515
3.837;1000;515;516
3.838;1000;515;518
3.839;1000;512;514
3.84;1000;512;513
3.841;1000;512;514
3.842;1000;511;515
3.843;1000;509;515
3.844;1000;508;513
3.845;1000;507;513
3.846;1000;508;513
3.847;1000;511;517
3.848;1000;510;513
3.849;1000;509;516
3.85;1000;509;511
3.851;1000;508;513
3.852;1000;510;514
3.853;1000;511;516
3.854;1000;511;514
3.855;1000;511;511
3.856;1000;510;512
3.857;1000;511;513
3.858;1000;513;513
3.859;1000;514;513
3.86;1000;514;510
3.861;1000;516;511
3.862;1000;518;512
3.863;1000;519;512
3.864;1000;520;511
3.865;1000;519;511
3.866;1000;513;512
3.867;1000;509;509
3.868;1000;508;513
3.869;1000;509;512
3.87;1000;511;510
3.871;1000;513;511
3.872;1000;514;512
3.873;1000;512;514
3.874;1000;512;511
3.875;1000;511;510
3.876;1000;510;511
3.877;1000;510;512
3.878;1000;508;511
3.879;1000;506;513
3.88;1000;506;509
3.881;1000;507;510
3.882;1000;508;513
3.883;1000;506;510
3.884;1000;505;511
3.885;1000;503;508
3.886;1000;503;509
3.887;1000;502;511
3.888;1000;500;512
3.889;1000;499;508
3.89;1000;497;508
3.891;1000;496;508
3.892;1000;495;511
3.893;1000;494;509
3.894;1000;496;512
3.895;1000;499;508
3.896;1000;499;508
3.897;1000;496;510
3.898;1000;494;511
3.899;1000;494;509
3.9;1000;495;506
3.901;1000;496;507
3.902;1000;498;508
3.903;1000;498;511
3.904;1000;496;506
3.905;1000;495;506
3.906;1000;497;506
3.907;1000;498;508
3.908;1000;497;509
3.909;1000;496;507
3.91;1000;495;507
3.911;1000;497;507
3.912;1000;496;508
3.913;1000;496;506
3.914;1000;497;510
3.915;1000;499;505
3.916;1000;502;505
3.917;1000;503;508
3.918;1000;501;507
3.919;1000;501;507
3.92;1000;501;506
3.921;1000;500;507
3.922;1000;500;508
3.923;1000;499;509
3.924;1000;498;508
3.925;1000;497;505
3.926;1000;497;506
3.927;1000;501;508
3.928;1000;501;507
3.929;1000;500;507
3.93;1000;500;507
3.931;1000;501;507
3.932;1000;501;508
3.933;1000;501;511
3.934;1000;500;509
3.935;1000;496;505
3.936;1000;496;507
3.937;1000;498;508
3.938;1000;500;508
3.939;1000;504;508
3.94;1000;504;507
3.941;1000;506;508
3.942;1000;508;509
3.943;1000;508;508
3.944;1000;508;511
3.945;1000;510;507
3.946;1000;510;508
3.947;1000;509;510
3.948;1000;506;512
3.949;1000;504;511
3.95;1000;502;507
3.951;1000;500;508
3.952;1000;499;510
3.953;1000;500;512
3.954;1000;499;508
3.955;1000;500;508
3.956;1000;504;509
3.957;1000;508;510
3.958;1000;508;510
3.959;1000;507;513
3.96;1000;504;509
3.961;1000;500;508
3.962;1000;496;513
3.963;1000;494;510
3.964;1000;492;511
3.965;1000;491;508
3.966;1000;486;510
3.967;1000;480;511
3.968;1000;474;514
3.969;1000;471;509
3.97;1000;470;509
3.971;1000;470;510
3.972;1000;472;513
3.973;1000;473;511
3.974;1000;475;514
3.975;1000;480;510
3.976;1000;486;512
3.977;1000;496;512
3.978;1000;509;513
3.979;1000;519;512
3.98;1000;527;510
3.981;1000;537;510
3.982;1000;548;512
3.983;1000;559;512
3.984;1000;570;512
3.985;1000;582;510
3.986;1000;595;510
3.987;1000;611;512
3.988;1000;628;512
3.989;1000;644;512
3.99;1000;658;511
3.991;1000;670;513
3.992;1000;683;513
3.993;1000;696;512
3.994;1000;707;511
3.995;1000;720;510
3.996;1000;732;511
3.997;1000;741;512
3.998;1000;753;515
3.999;1000;764;513
4;1000;770;510
4.001;1000;771;511
4.002;1000;770;510
4.003;1000;764;515
4.004;1000;749;514
4.005;1000;725;511
4.006;1000;696;511
4.007;1000;666;513
4.008;1000;633;513
4.009;1000;598;514
4.01;1000;565;512
4.011;1000;539;512
4.012;1000;516;513
4.013;1000;498;515
4.014;1000;483;511
4.015;1000;472;510
4.016;1000;464;512
4.017;1000;457;513
4.018;1000;452;513
4.019;1000;450;512
4.02;1000;451;511
4.021;1000;452;512
4.022;1000;453;516
4.023;1000;455;512
4.024;1000;455;516
4.025;1000;458;511
4.026;1000;459;512
4.027;1000;457;513
4.028;1000;458;516
4.029;1000;459;514
4.03;1000;458;512
4.031;1000;459;513
4.032;1000;458;514
4.033;1000;456;516
4.034;1000;454;512
4.035;1000;452;512
4.036;1000;452;513
4.037;1000;451;515
4.038;1000;453;514
4.039;1000;457;517
4.04;1000;459;513
4.041;1000;459;512
4.042;1000;461;517
4.043;1000;462;513
4.044;1000;464;515
4.045;1000;464;511
4.046;1000;462;513
4.047;1000;462;515
4.048;1000;464;517
4.049;1000;466;515
4.05;1000;468;512
4.051;1000;467;513
4.052;1000;466;511
4.053;1000;465;517
4.054;1000;466;516
4.055;1000;469;513
4.056;1000;470;513
4.057;1000;474;518
4.058;1000;476;514
4.059;1000;477;515
4.06;1000;481;513
4.061;1000;484;514
4.062;1000;483;515
4.063;1000;480;517
4.064;1000;478;513
4.065;1000;478;513
4.066;1000;477;513
4.067;1000;476;517
4.068;1000;477;515
4.069;1000;479;512
4.07;1000;479;514
4.071;1000;480;514
4.072;1000;480;516
4.073;1000;480;519
4.074;1000;479;516
4.075;1000;476;513
4.076;1000;477;514
4.077;1000;480;515
4.078;1000;482;515
4.079;1000;483;516
4.08;1000;484;513
4.081;1000;485;514
4.082;1000;486;515
4.083;1000;486;516
4.084;1000;488;515
4.085;1000;488;514
4.086;1000;487;515
4.087;1000;489;513
4.088;1000;489;519
4.089;1000;488;515
4.09;1000;487;513
4.091;1000;486;513
4.092;1000;484;515
4.093;1000;486;518
4.094;1000;487;516
4.095;1000;489;512
4.096;1000;489;514
4.097;1000;490;514
4.098;1000;490;514
4.099;1000;491;518
4.1;1000;493;513
4.101;1000;494;514
4.102;1000;495;513
4.103;1000;496;516
4.104;1000;498;516
4.105;1000;498;514
4.106;1000;497;514
4.107;1000;495;516
4.108;1000;494;518
4.109;1000;493;516
4.11;1000;493;513
4.111;1000;492;514
4.112;1000;492;516
4.113;1000;493;516
4.114;1000;496;514
4.115;1000;496;513
4.116;1000;496;514
4.117;1000;496;513
4.118;1000;497;518
4.119;1000;499;515
4.12;1000;500;517
4.121;1000;500;515
4.122;1000;500;515
4.123;1000;501;518
4.124;1000;503;516
4.125;1000;505;513
4.126;1000;506;514
4.127;1000;506;516
4.128;1000;504;516
4.129;1000;504;515
4.13;1000;504;514
4.131;1000;506;515
4.132;1000;507;516
4.133;1000;507;515
4.134;1000;505;518
4.135;1000;505;514
4.136;1000;505;515
4.137;1000;506;516
4.138;1000;507;517
4.139;1000;511;515
4.14;1000;515;512
4.141;1000;516;514
4.142;1000;514;515
4.143;1000;514;517
4.144;1000;513;513
4.145;1000;513;512
4.146;1000;513;513
4.147;1000;511;515
4.148;1000;509;514
4.149;1000;508;517
4.15;1000;513;513
4.151;1000;514;512
4.152;1000;514;516
4.153;1000;512;512
4.154;1000;511;514
4.155;1000;512;511
4.156;1000;514;512
4.157;1000;518;513
4.158;1000;521;515
4.159;1000;523;512
4.16;1000;524;510
4.161;1000;523;512
4.162;1000;521;513
4.163;1000;520;513
4.164;1000;522;512
4.165;1000;523;511
4.166;1000;522;511
4.167;1000;522;516
4.168;1000;524;512
4.169;1000;522;516
4.17;1000;524;510
4.171;1000;522;513
4.172;1000;522;513
4.173;1000;522;515
4.174;1000;521;513
4.175;1000;524;510
4.176;1000;525;511
4.177;1000;524;513
4.178;1000;525;513
4.179;1000;528;513
4.18;1000;531;511
4.181;1000;535;511
4.182;1000;536;513
4.183;1000;537;513
4.184;1000;540;512
4.185;1000;539;511
4.186;1000;536;513
4.187;1000;536;510
4.188;1000;538;514
4.189;1000;543;514
4.19;1000;543;511
4.191;1000;542;512
4.192;1000;543;513
4.193;1000;543;516
4.194;1000;543;513
4.195;1000;544;512
4.196;1000;545;513
4.197;1000;547;514
4.198;1000;550;514
4.199;1000;550;510
4.2;1000;551;515
4.201;1000;552;512
4.202;1000;554;514
4.203;1000;557;516
4.204;1000;559;515
4.205;1000;560;512
4.206;1000;560;513
4.207;1000;559;515
4.208;1000;559;515
4.209;1000;558;514
4.21;1000;558;513
4.211;1000;558;515
4.212;1000;559;516
4.213;1000;560;515
4.214;1000;561;517
4.215;1000;563;513
4.216;1000;563;515
4.217;1000;565;516
4.218;1000;567;518
4.219;1000;567;515
4.22;1000;566;513
4.221;1000;566;515
4.222;1000;566;516
4.223;1000;567;519
4.224;1000;567;515
4.225;1000;567;515
4.226;1000;566;515
4.227;1000;565;518
4.228;1000;567;518
4.229;1000;570;521
4.23;1000;571;517
4.231;1000;568;517
4.232;1000;566;522
4.233;1000;564;518
4.234;1000;563;521
4.235;1000;563;518
4.236;1000;561;519
4.237;1000;561;521
4.238;1000;562;524
4.239;1000;559;523
4.24;1000;556;520
4.241;1000;558;521
4.242;1000;561;524
4.243;1000;559;524
4.244;1000;560;523
4.245;1000;559;523
4.246;1000;556;524
4.247;1000;555;524
4.248;1000;557;529
4.249;1000;556;526
4.25;1000;552;526
4.251;1000;548;527
4.252;1000;544;529
4.253;1000;543;532
4.254;1000;540;530
4.255;1000;536;528
4.256;1000;534;529
4.257;1000;530;532
4.258;1000;526;532
4.259;1000;524;532
4.26;1000;524;532
4.261;1000;527;534
4.262;1000;526;533
4.263;1000;524;537
4.264;1000;523;532
4.265;1000;521;536
4.266;1000;518;536
4.267;1000;514;538
4.268;1000;510;541
4.269;1000;510;540
4.27;1000;507;537
4.271;1000;500;539
4.272;1000;497;541
4.273;1000;496;544
4.274;1000;492;540
4.275;1000;489;540
4.276;1000;486;542
4.277;1000;486;544
4.278;1000;485;543
4.279;1000;484;547
4.28;1000;484;544
4.281;1000;481;544
4.282;1000;477;548
4.283;1000;473;546
4.284;1000;472;548
4.285;1000;472;545
4.286;1000;470;547
4.287;1000;468;549
4.288;1000;467;552
4.289;1000;467;548
4.29;1000;464;548
4.291;1000;461;548
4.292;1000;460;552
4.293;1000;458;551
4.294;1000;456;554
4.295;1000;455;550
4.296;1000;454;552
4.297;1000;453;552
4.298;1000;453;555
4.299;1000;455;554
4.3;1000;456;551
4.301;1000;458;552
4.302;1000;458;554
4.303;1000;457;554
4.304;1000;457;555
4.305;1000;458;552
4.306;1000;458;553
4.307;1000;460;552
4.308;1000;460;557
4.309;1000;458;556
4.31;1000;455;553
4.311;1000;453;555
4.312;1000;452;559
4.313;1000;453;554
4.314;1000;451;556
4.315;1000;448;553
4.316;1000;447;554
4.317;1000;448;555
4.318;1000;451;557
4.319;1000;452;553
4.32;1000;454;552
4.321;1000;453;553
4.322;1000;455;554
4.323;1000;457;554
4.324;1000;455;552
4.325;1000;454;551
4.326;1000;454;552
4.327;1000;453;556
4.328;1000;454;551
4.329;1000;455;555
4.33;1000;455;549
4.331;1000;455;551
4.332;1000;455;551
4.333;1000;455;553
4.334;1000;455;551
4.335;1000;457;548
4.336;1000;457;549
4.337;1000;458;550
4.338;1000;457;548
4.339;1000;461;548
4.34;1000;465;545
4.341;1000;466;546
4.342;1000;466;547
4.343;1000;466;546
4.344;1000;469;544
4.345;1000;469;543
4.346;1000;465;544
4.347;1000;463;544
4.348;1000;464;543
4.349;1000;467;542
4.35;1000;469;540
4.351;1000;469;541
4.352;1000;468;541
4.353;1000;466;541
4.354;1000;469;539
4.355;1000;470;537
4.356;1000;467;538
4.357;1000;464;538
4.358;1000;465;538
4.359;1000;464;535
4.36;1000;463;534
4.361;1000;464;534
4.362;1000;468;535
4.363;1000;470;532
4.364;1000;469;530
4.365;1000;469;529
4.366;1000;469;529
4.367;1000;467;528
4.368;1000;468;532
4.369;1000;468;529
4.37;1000;466;528
4.371;1000;466;527
4.372;1000;468;525
4.373;1000;469;526
4.374;1000;467;527
4.375;1000;466;523
4.376;1000;465;523
4.377;1000;467;526
4.378;1000;468;522
4.379;1000;470;525
4.38;1000;473;520
4.381;1000;473;519
4.382;1000;472;521
4.383;1000;473;519
4.384;1000;477;520
4.385;1000;479;517
4.386;1000;478;518
4.387;1000;474;519
4.388;1000;472;517
4.389;1000;471;519
4.39;1000;472;515
4.391;1000;470;516
4.392;1000;468;513
4.393;1000;469;516
4.394;1000;472;516
4.395;1000;473;512
4.396;1000;475;512
4.397;1000;478;513
4.398;1000;479;515
4.399;1000;479;513
4.4;1000;478;509
4.401;1000;475;510
4.402;1000;472;508
4.403;1000;472;512
4.404;1000;473;511
4.405;1000;474;507
4.406;1000;478;507
4.407;1000;480;511
4.408;1000;479;506
4.409;1000;478;508
4.41;1000;476;505
4.411;1000;476;504
4.412;1000;476;505
4.413;1000;477;504
4.414;1000;476;504
4.415;1000;477;502
4.416;1000;478;503
4.417;1000;477;503
4.418;1000;477;502
4.419;1000;478;505
4.42;1000;481;500
4.421;1000;486;501
4.422;1000;487;500
4.423;1000;487;503
4.424;1000;485;502
4.425;1000;482;500
4.426;1000;480;499
4.427;1000;477;501
4.428;1000;477;502
4.429;1000;478;501
4.43;1000;481;497
4.431;1000;481;498
4.432;1000;481;499
4.433;1000;481;499
4.434;1000;482;497
4.435;1000;478;496
4.436;1000;477;497
4.437;1000;477;496
4.438;1000;478;500
4.439;1000;479;497
4.44;1000;481;498
4.441;1000;483;497
4.442;1000;484;497
4.443;1000;483;500
4.444;1000;480;497
4.445;1000;480;495
4.446;1000;479;496
4.447;1000;478;497
4.448;1000;480;496
4.449;1000;482;496
4.45;1000;483;496
4.451;1000;482;496
4.452;1000;483;497
4.453;1000;481;496
4.454;1000;478;499
4.455;1000;480;496
4.456;1000;481;496
4.457;1000;482;498
4.458;1000;485;499
4.459;1000;489;497
4.46;1000;490;494
4.461;1000;490;496
4.462;1000;492;497
4.463;1000;496;499
4.464;1000;500;495
4.465;1000;503;495
4.466;1000;500;496
4.467;1000;494;497
4.468;1000;489;496
4.469;1000;487;500
4.47;1000;485;496
4.471;1000;484;496
4.472;1000;482;501
4.473;1000;482;497
4.474;1000;483;499
4.475;1000;484;496
4.476;1000;487;497
4.477;1000;490;499
4.478;1000;492;501
4.479;1000;492;497
4.48;1000;493;497
4.481;1000;494;498
4.482;1000;493;500
4.483;1000;492;500
4.484;1000;491;499
4.485;1000;490;498
4.486;1000;490;499
4.487;1000;494;504
4.488;1000;495;500
4.489;1000;497;504
4.49;1000;499;499
4.491;1000;500;502
4.492;1000;500;503
4.493;1000;499;505
4.494;1000;498;503
4.495;1000;499;500
4.496;1000;499;502
4.497;1000;500;504
4.498;1000;503;504
4.499;1000;504;505
4.5;1000;505;503
4.501;1000;505;504
4.502;1000;506;506
4.503;1000;508;506
4.504;1000;509;506
4.505;1000;504;506
4.506;1000;502;508
4.507;1000;503;505
4.508;1000;505;509
4.509;1000;506;510
4.51;1000;507;507
4.511;1000;507;509
4.512;1000;505;511
4.513;1000;505;510
4.514;1000;505;513
4.515;1000;504;510
4.516;1000;504;511
4.517;1000;505;512
4.518;1000;504;512
4.519;1000;505;509
4.52;1000;507;512
4.521;1000;509;512
4.522;1000;510;514
4.523;1000;510;516
4.524;1000;512;515
4.525;1000;513;513
4.526;1000;512;514
4.527;1000;510;516
4.528;1000;507;516
4.529;1000;509;515
4.53;1000;509;515
4.531;1000;509;516
4.532;1000;508;518
4.533;1000;508;516
4.534;1000;508;519
4.535;1000;510;516
4.536;1000;511;517
4.537;1000;513;519
4.538;1000;515;520
4.539;1000;515;519
4.54;1000;518;516
4.541;1000;518;518
4.542;1000;518;519
4.543;1000;517;522
4.544;1000;515;518
4.545;1000;514;518
4.546;1000;512;519
4.547;1000;511;520
4.548;1000;511;519
4.549;1000;509;523
4.55;1000;508;520
4.551;1000;509;519
4.552;1000;510;524
4.553;1000;511;519
4.554;1000;513;523
4.555;1000;515;519
4.556;1000;515;520
4.557;1000;514;522
4.558;1000;513;524
4.559;1000;512;523
4.56;1000;514;520
4.561;1000;516;521
4.562;1000;518;523
4.563;1000;520;522
4.564;1000;519;521
4.565;1000;518;521
4.566;1000;517;522
4.567;1000;516;521
4.568;1000;517;526
4.569;1000;519;523
4.57;1000;521;522
4.571;1000;521;524
4.572;1000;517;524
4.573;1000;514;526
4.574;1000;514;524
4.575;1000;515;521
4.576;1000;514;523
4.577;1000;513;524
4.578;1000;513;524
4.579;1000;512;524
4.58;1000;513;523
4.581;1000;517;524
4.582;1000;518;523
4.583;1000;519;526
4.584;1000;519;521
4.585;1000;518;523
4.586;1000;518;523
4.587;1000;518;524
4.588;1000;518;527
4.589;1000;520;524
4.59;1000;521;522
4.591;1000;521;523
4.592;1000;517;524
4.593;1000;516;526
4.594;1000;519;522
4.595;1000;518;522
4.596;1000;517;523
4.597;1000;517;524
4.598;1000;518;523
4.599;1000;523;526
4.6;1000;524;521
4.601;1000;521;521
4.602;1000;519;526
4.603;1000;519;522
4.604;1000;519;523
4.605;1000;518;520
4.606;1000;518;521
4.607;1000;518;523
4.608;1000;521;525
4.609;1000;524;521
4.61;1000;524;520
4.611;1000;521;520
4.612;1000;519;523
4.613;1000;521;522
4.614;1000;521;524
4.615;1000;519;519
4.616;1000;517;522
4.617;1000;520;522
4.618;1000;519;521
4.619;1000;516;519
4.62;1000;517;519
4.621;1000;519;520
4.622;1000;521;521
4.623;1000;523;523
4.624;1000;521;521
4.625;1000;520;518
4.626;1000;520;519
4.627;1000;523;517
4.628;1000;526;522
4.629;1000;531;519
4.63;1000;531;518
4.631;1000;531;519
4.632;1000;531;518
4.633;1000;528;521
4.634;1000;524;519
4.635;1000;521;515
4.636;1000;520;516
4.637;1000;522;518
4.638;1000;523;517
4.639;1000;523;517
4.64;1000;523;514
4.641;1000;521;515
4.642;1000;519;517
4.643;1000;515;516
4.644;1000;515;515
4.645;1000;515;514
4.646;1000;516;517
4.647;1000;516;513
4.648;1000;515;519
4.649;1000;513;512
4.65;1000;510;514
4.651;1000;506;514
4.652;1000;504;515
4.653;1000;503;516
4.654;1000;503;515
4.655;1000;502;511
4.656;1000;500;512
4.657;1000;500;513
4.658;1000;500;516
4.659;1000;501;512
4.66;1000;504;510
4.661;1000;507;512
4.662;1000;511;513
4.663;1000;511;512
4.664;1000;510;516
4.665;1000;508;511
4.666;1000;505;511
4.667;1000;505;515
4.668;1000;507;511
4.669;1000;508;512
4.67;1000;508;509
4.671;1000;506;511
4.672;1000;502;512
4.673;1000;502;513
4.674;1000;504;510
4.675;1000;507;509
4.676;1000;510;509
4.677;1000;511;513
4.678;1000;510;511
4.679;1000;508;513
4.68;1000;508;508
4.681;1000;510;511
4.682;1000;509;511
4.683;1000;510;513
4.684;1000;509;511
4.685;1000;506;508
4.686;1000;504;509
4.687;1000;505;510
4.688;1000;504;510
4.689;1000;504;510
4.69;1000;502;508
4.691;1000;498;509
4.692;1000;499;509
4.693;1000;500;510
4.694;1000;503;510
4.695;1000;504;509
4.696;1000;505;510
4.697;1000;506;507
4.698;1000;505;512
4.699;1000;507;509
4.7;1000;507;507
4.701;1000;505;508
4.702;1000;505;510
4.703;1000;505;511
4.704;1000;506;510
4.705;1000;508;506
4.706;1000;510;508
4.707;1000;509;507
4.708;1000;507;512
4.709;1000;507;508
4.71;1000;507;508
4.711;1000;507;509
4.712;1000;506;508
4.713;1000;503;512
4.714;1000;501;510
4.715;1000;502;506
4.716;1000;504;508
4.717;1000;507;508
4.718;1000;510;511
4.719;1000;511;507
4.72;1000;511;507
4.721;1000;510;508
4.722;1000;508;509
4.723;1000;507;508
4.724;1000;506;508
4.725;1000;504;506
4.726;1000;504;508
4.727;1000;504;510
4.728;1000;503;507
4.729;1000;499;511
4.73;1000;497;507
4.731;1000;497;506
4.732;1000;495;509
4.733;1000;492;508
4.734;1000;486;510
4.735;1000;480;507
4.736;1000;477;509
4.737;1000;472;510
4.738;1000;471;509
4.739;1000;475;512
4.74;1000;481;508
4.741;1000;487;510
4.742;1000;492;508
4.743;1000;497;512
4.744;1000;503;511
4.745;1000;511;508
4.746;1000;521;509
4.747;1000;531;510
4.748;1000;544;512
4.749;1000;555;511
4.75;1000;563;508
4.751;1000;571;509
4.752;1000;580;510
4.753;1000;593;511
4.754;1000;608;509
4.755;1000;623;508
4.756;1000;638;510
4.757;1000;653;509
4.758;1000;668;513
4.759;1000;683;509
4.76;1000;701;509
4.761;1000;717;511
4.762;1000;727;511
4.763;1000;736;513
4.764;1000;747;512
4.765;1000;756;509
4.766;1000;762;510
4.767;1000;763;511
4.768;1000;762;511
4.769;1000;761;510
4.77;1000;754;510
4.771;1000;739;511
4.772;1000;718;512
4.773;1000;692;511
4.774;1000;665;514
4.775;1000;637;510
4.776;1000;603;510
4.777;1000;573;513
4.778;1000;545;512
4.779;1000;522;513
4.78;1000;506;511
4.781;1000;493;512
4.782;1000;485;513
4.783;1000;479;515
4.784;1000;473;511
4.785;1000;466;510
4.786;1000;463;511
4.787;1000;465;514
4.788;1000;466;514
4.789;1000;464;512
4.79;1000;462;511
4.791;1000;460;512
4.792;1000;460;513
4.793;1000;462;515
4.794;1000;464;513
4.795;1000;462;510
4.796;1000;459;512
4.797;1000;456;512
4.798;1000;454;512
4.799;1000;454;513
4.8;1000;457;510
4.801;1000;459;511
4.802;1000;462;513
4.803;1000;462;512
4.804;1000;460;512
4.805;1000;460;512
4.806;1000;457;513
4.807;1000;456;511
4.808;1000;459;515
4.809;1000;463;510
4.81;1000;465;512
4.811;1000;467;512
4.812;1000;465;513
4.813;1000;465;515
4.814;1000;467;513
4.815;1000;466;511
4.816;1000;467;512
4.817;1000;467;513
4.818;1000;470;515
4.819;1000;473;512
4.82;1000;477;511
4.821;1000;479;512
4.822;1000;479;514
4.823;1000;479;513
4.824;1000;476;517
4.825;1000;476;512
4.826;1000;476;512
4.827;1000;476;516
4.828;1000;476;512
4.829;1000;477;515
4.83;1000;475;512
4.831;1000;476;513
4.832;1000;476;515
4.833;1000;477;516
4.834;1000;480;513
4.835;1000;482;512
4.836;1000;483;513
4.837;1000;485;512
4.838;1000;484;517
4.839;1000;483;514
4.84;1000;481;517
4.841;1000;479;514
4.842;1000;481;514
4.843;1000;484;515
4.844;1000;489;515
4.845;1000;492;512
4.846;1000;495;513
4.847;1000;497;515
4.848;1000;496;517
4.849;1000;492;513
4.85;1000;489;512
4.851;1000;488;513
4.852;1000;487;515
4.853;1000;486;514
4.854;1000;485;513
4.855;1000;488;512
4.856;1000;492;513
4.857;1000;494;518
4.858;1000;494;514
4.859;1000;496;517
4.86;1000;499;513
4.861;1000;500;515
4.862;1000;501;516
4.863;1000;503;518
4.864;1000;502;516
4.865;1000;499;513
4.866;1000;497;513
4.867;1000;497;517
4.868;1000;496;515
4.869;1000;496;513
4.87;1000;497;514
4.871;1000;499;515
4.872;1000;499;516
4.873;1000;501;519
4.874;1000;501;516
4.875;1000;499;513
4.876;1000;498;514
4.877;1000;498;515
4.878;1000;499;515
4.879;1000;501;516
4.88;1000;504;513
4.881;1000;504;514
4.882;1000;506;515
4.883;1000;506;515
4.884;1000;505;515
4.885;1000;506;514
4.886;1000;508;516
4.887;1000;509;513
4.888;1000;510;518
4.889;1000;509;515
4.89;1000;507;513
4.891;1000;505;514
4.892;1000;503;515
4.893;1000;502;517
4.894;1000;501;515
4.895;1000;501;512
4.896;1000;505;513
4.897;1000;509;514
4.898;1000;508;514
4.899;1000;508;513
4.9;1000;511;513
4.901;1000;513;514
4.902;1000;515;512
4.903;1000;516;516
4.904;1000;514;513
4.905;1000;513;517
4.906;1000;512;515
4.907;1000;510;515
4.908;1000;510;517
4.909;1000;512;515
4.91;1000;515;511
4.911;1000;518;513
4.912;1000;519;514
4.913;1000;518;517
4.914;1000;515;513
4.915;1000;515;512
4.916;1000;515;513
4.917;1000;514;514
4.918;1000;515;514
4.919;1000;516;513
4.92;1000;520;511
4.921;1000;522;512
4.922;1000;520;517
4.923;1000;520;513
4.924;1000;521;516
4.925;1000;520;512
4.926;1000;519;514
4.927;1000;520;515
4.928;1000;521;517
4.929;1000;522;514
4.93;1000;520;513
4.931;1000;520;514
4.932;1000;520;515
4.933;1000;521;514
4.934;1000;523;517
4.935;1000;527;513
4.936;1000;530;515
4.937;1000;532;516
4.938;1000;535;514
4.939;1000;537;514
4.94;1000;535;512
4.941;1000;534;513
4.942;1000;533;514
4.943;1000;533;516
4.944;1000;536;513
4.945;1000;536;512
4.946;1000;535;512
4.947;1000;537;515
4.948;1000;539;513
4.949;1000;538;514
4.95;1000;536;513
4.951;1000;539;514
4.952;1000;543;514
4.953;1000;546;517
4.954;1000;545;515
4.955;1000;545;511
4.956;1000;545;512
4.957;1000;546;514
4.958;1000;547;513
4.959;1000;547;514
4.96;1000;551;511
4.961;1000;555;512
4.962;1000;556;513
4.963;1000;555;513
4.964;1000;556;513
4.965;1000;558;512
4.966;1000;559;514
4.967;1000;558;511
4.968;1000;555;516
4.969;1000;555;510
4.97;1000;557;512
4.971;1000;559;512
4.972;1000;562;513
4.973;1000;564;516
4.974;1000;566;514
4.975;1000;566;511
4.976;1000;562;513
4.977;1000;561;513
4.978;1000;564;516
4.979;1000;564;513
4.98;1000;567;512
4.981;1000;569;513
4.982;1000;571;515
4.983;1000;572;515
4.984;1000;572;513
4.985;1000;572;513
4.986;1000;571;516
4.987;1000;570;515
4.988;1000;569;515
4.989;1000;572;515
4.99;1000;572;514
4.991;1000;570;515
4.992;1000;570;517
4.993;1000;571;517
4.994;1000;572;518
4.995;1000;573;517
4.996;1000;574;519
4.997;1000;573;519
4.998;1000;575;519
4.999;1000;575;518
5;1000;574;518
5.001;1000;572;519
5.002;1000;574;520
5.003;1000;573;519
5.004;1000;571;519
5.005;1000;570;518
5.006;1000;568;520
5.007;1000;566;522
5.008;1000;562;522
5.009;1000;560;522
5.01;1000;560;525
5.011;1000;560;522
5.012;1000;559;522
5.013;1000;557;527
5.014;1000;556;526
5.015;1000;555;526
5.016;1000;552;527
5.017;1000;547;524
5.018;1000;545;530
5.019;1000;545;528
5.02;1000;544;528
5.021;1000;543;529
5.022;1000;540;531
5.023;1000;539;534
5.024;1000;537;532
5.025;1000;536;530
5.026;1000;532;532
5.027;1000;529;531
5.028;1000;528;536
5.029;1000;525;536
5.03;1000;519;534
5.031;1000;516;534
5.032;1000;515;538
5.033;1000;513;537
5.034;1000;509;539
5.035;1000;505;537
5.036;1000;501;538
5.037;1000;497;540
5.038;1000;495;543
5.039;1000;494;540
5.04;1000;491;539
5.041;1000;491;541
5.042;1000;492;543
5.043;1000;492;543
5.044;1000;491;543
5.045;1000;487;542
5.046;1000;484;544
5.047;1000;482;543
5.048;1000;480;548
5.049;1000;480;546
5.05;1000;481;546
5.051;1000;483;548
5.052;1000;480;548
5.053;1000;475;551
5.054;1000;472;550
5.055;1000;472;547
5.056;1000;473;550
5.057;1000;477;551
5.058;1000;473;551
5.059;1000;468;551
5.06;1000;465;551
5.061;1000;466;553
5.062;1000;466;550
5.063;1000;463;555
5.064;1000;461;550
5.065;1000;458;552
5.066;1000;456;552
5.067;1000;457;554
5.068;1000;458;556
5.069;1000;455;555
5.07;1000;455;552
5.071;1000;454;554
5.072;1000;454;555
5.073;1000;453;557
5.074;1000;453;554
5.075;1000;451;553
5.076;1000;450;554
5.077;1000;453;555
5.078;1000;454;555
5.079;1000;454;558
5.08;1000;455;554
5.081;1000;459;554
5.082;1000;460;558
5.083;1000;462;554
5.084;1000;459;557
5.085;1000;456;553
5.086;1000;454;554
5.087;1000;454;555
5.088;1000;452;557
5.089;1000;451;553
5.09;1000;448;552
5.091;1000;450;553
5.092;1000;453;555
5.093;1000;455;553
5.094;1000;457;556
5.095;1000;457;551
5.096;1000;457;552
5.097;1000;457;553
5.098;1000;457;555
5.099;1000;460;552
5.1;1000;463;548
5.101;1000;465;550
5.102;1000;466;550
5.103;1000;466;551
5.104;1000;464;548
5.105;1000;462;546
5.106;1000;463;548
5.107;1000;463;548
5.108;1000;464;547
5.109;1000;462;550
5.11;1000;460;544
5.111;1000;458;544
5.112;1000;456;547
5.113;1000;457;543
5.114;1000;459;543
5.115;1000;458;540
5.116;1000;461;541
5.117;1000;464;541
5.118;1000;467;543
5.119;1000;468;539
5.12;1000;468;537
5.121;1000;467;538
5.122;1000;467;538
5.123;1000;468;537
5.124;1000;470;536
5.125;1000;470;534
5.126;1000;470;534
5.127;1000;469;538
5.128;1000;471;533
5.129;1000;469;536
5.13;1000;467;530
5.131;1000;465;533
5.132;1000;463;532
5.133;1000;464;533
5.134;1000;467;531
5.135;1000;470;527
5.136;1000;470;528
5.137;1000;470;528
5.138;1000;472;527
5.139;1000;472;526
5.14;1000;475;524
5.141;1000;479;525
5.142;1000;479;526
5.143;1000;476;525
5.144;1000;473;523
5.145;1000;473;521
5.146;1000;473;523
5.147;1000;473;519
5.148;1000;473;524
5.149;1000;474;521
5.15;1000;474;523
5.151;1000;473;519
5.152;1000;473;520
5.153;1000;471;518
5.154;1000;471;521
5.155;1000;473;516
5.156;1000;475;517
5.157;1000;475;515
5.158;1000;476;518
5.159;1000;479;518
5.16;1000;480;514
5.161;1000;482;515
5.162;1000;482;515
5.163;1000;482;516
5.164;1000;481;513
5.165;1000;481;510
5.166;1000;482;511
5.167;1000;483;512
5.168;1000;482;511
5.169;1000;480;510
5.17;1000;481;508
5.171;1000;481;509
5.172;1000;480;507
5.173;1000;480;511
5.174;1000;482;507
5.175;1000;482;507
5.176;1000;484;507
5.177;1000;487;507
5.178;1000;488;508
5.179;1000;487;506
5.18;1000;488;502
5.181;1000;489;504
5.182;1000;488;504
5.183;1000;487;504
5.184;1000;486;504
5.185;1000;483;501
5.186;1000;481;502
5.187;1000;480;502
5.188;1000;481;502
5.189;1000;483;501
5.19;1000;484;501
5.191;1000;485;503
5.192;1000;484;499
5.193;1000;486;504
5.194;1000;487;497
5.195;1000;487;499
5.196;1000;488;499
5.197;1000;489;499
5.198;1000;491;501
5.199;1000;492;499
5.2;1000;490;496
5.201;1000;489;498
5.202;1000;489;499
5.203;1000;492;501
5.204;1000;498;497
5.205;1000;498;496
5.206;1000;491;497
5.207;1000;483;498
5.208;1000;481;497
5.209;1000;483;500
5.21;1000;484;496
5.211;1000;486;496
5.212;1000;487;498
5.213;1000;486;497
5.214;1000;484;499
5.215;1000;484;496
5.216;1000;485;498
5.217;1000;487;498
5.218;1000;487;497
5.219;1000;487;500
5.22;1000;488;496
5.221;1000;488;498
5.222;1000;488;496
5.223;1000;487;499
5.224;1000;487;499
5.225;1000;490;496
5.226;1000;491;498
5.227;1000;493;498
5.228;1000;496;500
5.229;1000;495;499
5.23;1000;491;496
5.231;1000;492;498
5.232;1000;496;499
5.233;1000;498;499
5.234;1000;497;497
5.235;1000;498;497
5.236;1000;496;498
5.237;1000;497;497
5.238;1000;499;502
5.239;1000;498;499
5.24;1000;496;498
5.241;1000;498;500
5.242;1000;499;500
5.243;1000;498;503
5.244;1000;498;499
5.245;1000;501;498
5.246;1000;502;500
5.247;1000;500;501
5.248;1000;497;503
5.249;1000;495;500
5.25;1000;492;500
5.251;1000;493;502
5.252;1000;492;503
5.253;1000;494;502
5.254;1000;498;504
5.255;1000;498;501
5.256;1000;498;503
5.257;1000;497;504
5.258;1000;497;506
5.259;1000;499;504
5.26;1000;501;500
5.261;1000;500;504
5.262;1000;499;504
5.263;1000;501;507
5.264;1000;503;504
5.265;1000;503;503
5.266;1000;504;505
5.267;1000;504;505
5.268;1000;503;505
5.269;1000;502;509
5.27;1000;500;505
5.271;1000;500;504
5.272;1000;502;509
5.273;1000;503;505
5.274;1000;503;508
5.275;1000;504;505
5.276;1000;504;507
5.277;1000;504;508
5.278;1000;505;510
5.279;1000;504;507
5.28;1000;505;506
5.281;1000;508;508
5.282;1000;510;508
5.283;1000;511;509
5.284;1000;508;509
5.285;1000;506;508
5.286;1000;507;509
5.287;1000;508;513
5.288;1000;510;510
5.289;1000;510;514
5.29;1000;510;509
5.291;1000;508;512
5.292;1000;507;512
5.293;1000;506;514
5.294;1000;504;513
5.295;1000;504;511
5.296;1000;506;512
5.297;1000;508;513
5.298;1000;511;513
5.299;1000;512;515
5.3;1000;511;512
5.301;1000;511;514
5.302;1000;512;515
5.303;1000;511;515
5.304;1000;511;515
5.305;1000;509;515
5.306;1000;509;518
5.307;1000;511;514
5.308;1000;512;518
5.309;1000;511;518
5.31;1000;512;516
5.311;1000;513;518
5.312;1000;513;519
5.313;1000;512;520
5.314;1000;511;518
5.315;1000;511;518
5.316;1000;512;519
5.317;1000;515;520
5.318;1000;518;519
5.319;1000;516;522
5.32;1000;511;519
5.321;1000;508;521
5.322;1000;508;521
5.323;1000;509;523
5.324;1000;510;521
5.325;1000;513;519
5.326;1000;515;520
5.327;1000;513;521
5.328;1000;514;524
5.329;1000;516;521
5.33;1000;518;519
5.331;1000;516;521
5.332;1000;515;522
5.333;1000;514;522
5.334;1000;512;526
5.335;1000;512;521
5.336;1000;510;521
5.337;1000;511;526
5.338;1000;511;521
5.339;1000;511;523
5.34;1000;512;520
5.341;1000;515;523
5.342;1000;515;523
5.343;1000;515;525
5.344;1000;515;523
5.345;1000;516;521
5.346;1000;516;523
5.347;1000;515;521
5.348;1000;514;526
5.349;1000;515;524
5.35;1000;513;522
5.351;1000;511;525
5.352;1000;510;524
5.353;1000;510;526
5.354;1000;506;524
5.355;1000;504;521
5.356;1000;507;523
5.357;1000;512;523
5.358;1000;512;525
5.359;1000;514;522
5.36;1000;516;521
5.361;1000;517;523
5.362;1000;515;523
5.363;1000;515;523
5.364;1000;515;522
5.365;1000;515;521
5.366;1000;514;521
5.367;1000;515;526
5.368;1000;516;522
5.369;1000;515;525
5.37;1000;516;520
5.371;1000;517;521
5.372;1000;516;522
5.373;1000;515;524
5.374;1000;513;523
5.375;1000;513;519
5.376;1000;511;521
5.377;1000;510;521
5.378;1000;510;521
5.379;1000;512;524
5.38;1000;513;519
5.381;1000;512;521
5.382;1000;513;519
5.383;1000;517;522
5.384;1000;519;522
5.385;1000;520;519
5.386;1000;519;521
5.387;1000;519;520
5.388;1000;519;523
5.389;1000;516;521
5.39;1000;514;518
5.391;1000;513;519
5.392;1000;511;520
5.393;1000;510;519
5.394;1000;512;519
5.395;1000;513;518
5.396;1000;512;519
5.397;1000;510;517
5.398;1000;512;521
5.399;1000;514;518
5.4;1000;515;517
5.401;1000;515;519
5.402;1000;515;518
5.403;1000;514;520
5.404;1000;513;519
5.405;1000;514;515
5.406;1000;515;517
5.407;1000;516;518
5.408;1000;513;517
5.409;1000;513;516
5.41;1000;514;515
5.411;1000;515;517
5.412;1000;516;517
5.413;1000;518;516
5.414;1000;518;519
5.415;1000;515;514
5.416;1000;514;516
5.417;1000;515;517
5.418;1000;514;518
5.419;1000;514;515
5.42;1000;513;512
5.421;1000;511;514
5.422;1000;511;515
5.423;1000;511;516
5.424;1000;512;513
5.425;1000;513;511
5.426;1000;515;513
5.427;1000;517;514
5.428;1000;519;513
5.429;1000;519;514
5.43;1000;517;511
5.431;1000;515;510
5.432;1000;513;515
5.433;1000;512;510
5.434;1000;512;512
5.435;1000;513;510
5.436;1000;514;511
5.437;1000;515;511
5.438;1000;515;513
5.439;1000;517;510
5.44;1000;517;508
5.441;1000;519;511
5.442;1000;522;511
5.443;1000;524;510
5.444;1000;524;509
5.445;1000;525;508
5.446;1000;524;508
5.447;1000;523;512
5.448;1000;520;509
5.449;1000;522;512
5.45;1000;525;507
5.451;1000;524;510
5.452;1000;521;508
5.453;1000;519;508
5.454;1000;520;509
5.455;1000;520;505
5.456;1000;520;507
5.457;1000;519;508
5.458;1000;517;510
5.459;1000;514;507
5.46;1000;514;506
5.461;1000;515;508
5.462;1000;514;508
5.463;1000;512;507
5.464;1000;512;510
5.465;1000;512;506
5.466;1000;508;508
5.467;1000;505;508
5.468;1000;504;510
5.469;1000;502;509
5.47;1000;500;506
5.471;1000;499;508
5.472;1000;500;508
5.473;1000;499;510
5.474;1000;499;507
5.475;1000;498;506
5.476;1000;500;508
5.477;1000;502;508
5.478;1000;503;508
5.479;1000;504;511
5.48;1000;506;507
5.481;1000;508;507
5.482;1000;510;511
5.483;1000;510;507
5.484;1000;512;509
5.485;1000;511;505
5.486;1000;512;507
5.487;1000;511;508
5.488;1000;510;510
5.489;1000;507;508
5.49;1000;504;505
5.491;1000;503;507
5.492;1000;499;505
5.493;1000;499;510
5.494;1000;502;509
5.495;1000;503;506
5.496;1000;503;506
5.497;1000;504;509
5.498;1000;506;506
5.499;1000;508;508
5.5;1000;508;505
5.501;1000;506;507
5.502;1000;508;508
5.503;1000;510;510
5.504;1000;511;508
5.505;1000;510;506
5.506;1000;508;507
5.507;1000;508;510
5.508;1000;508;508
5.509;1000;507;506
5.51;1000;508;507
5.511;1000;509;509
5.512;1000;508;509
5.513;1000;506;512
5.514;1000;505;509
5.515;1000;506;506
5.516;1000;507;508
5.517;1000;510;508
5.518;1000;510;508
5.519;1000;505;509
5.52;1000;504;506
5.521;1000;506;508
5.522;1000;507;509
5.523;1000;510;509
5.524;1000;508;508
5.525;1000;505;507
5.526;1000;506;511
5.527;1000;508;507
5.528;1000;507;511
5.529;1000;508;508
5.53;1000;510;506
5.531;1000;511;509
5.532;1000;511;508
5.533;1000;511;511
5.534;1000;509;510
5.535;1000;507;506
5.536;1000;507;508
5.537;1000;506;509
5.538;1000;504;508
5.539;1000;504;508
5.54;1000;507;507
5.541;1000;509;509
5.542;1000;509;507
5.543;1000;508;512
5.544;1000;505;508
5.545;1000;502;511
5.546;1000;497;511
5.547;1000;492;510
5.548;1000;488;512
5.549;1000;485;510
5.55;1000;482;507
5.551;1000;480;509
5.552;1000;478;510
5.553;1000;476;513
5.554;1000;476;509
5.555;1000;478;508
5.556;1000;481;510
5.557;1000;483;511
5.558;1000;486;510
5.559;1000;492;510
5.56;1000;500;509
5.561;1000;511;511
5.562;1000;521;509
5.563;1000;534;514
5.564;1000;548;512
5.565;1000;559;510
5.566;1000;571;512
5.567;1000;584;513
5.568;1000;597;512
5.569;1000;612;516
5.57;1000;630;511
5.571;1000;648;513
5.572;1000;666;513
5.573;1000;683;515
5.574;1000;699;512
5.575;1000;711;511
5.576;1000;721;513
5.577;1000;732;513
5.578;1000;748;516
5.579;1000;760;513
5.58;1000;769;511
5.581;1000;776;512
5.582;1000;785;513
5.583;1000;793;513
5.584;1000;793;514
5.585;1000;791;511
5.586;1000;783;513
5.587;1000;771;513
5.588;1000;751;513
5.589;1000;727;513
5.59;1000;701;513
5.591;1000;672;516
5.592;1000;641;511
5.593;1000;606;516
5.594;1000;575;514
5.595;1000;551;512
5.596;1000;531;514
5.597;1000;515;514
5.598;1000;502;516
5.599;1000;494;515
5.6;1000;488;512
5.601;1000;480;514
5.602;1000;471;512
5.603;1000;467;517
5.604;1000;464;515
5.605;1000;460;513
5.606;1000;457;513
5.607;1000;457;515
5.608;1000;454;514
5.609;1000;454;516
5.61;1000;455;514
5.611;1000;455;515
5.612;1000;455;515
5.613;1000;457;517
5.614;1000;457;513
5.615;1000;456;511
5.616;1000;456;514
5.617;1000;455;515
5.618;1000;452;514
5.619;1000;452;514
5.62;1000;453;513
5.621;1000;453;513
5.622;1000;452;518
5.623;1000;452;515
5.624;1000;453;513
5.625;1000;455;512
5.626;1000;455;515
5.627;1000;455;513
5.628;1000;456;513
5.629;1000;458;514
5.63;1000;458;512
5.631;1000;458;514
5.632;1000;461;515
5.633;1000;464;514
5.634;1000;464;513
5.635;1000;463;512
5.636;1000;464;514
5.637;1000;468;515
5.638;1000;469;514
5.639;1000;470;512
5.64;1000;470;511
5.641;1000;467;514
5.642;1000;466;514
5.643;1000;467;512
5.644;1000;470;511
5.645;1000;472;510
5.646;1000;472;512
5.647;1000;471;513
5.648;1000;472;512
5.649;1000;472;515
5.65;1000;474;512
5.651;1000;475;512
5.652;1000;474;516
5.653;1000;473;514
5.654;1000;474;517
5.655;1000;475;512
5.656;1000;476;512
5.657;1000;475;516
5.658;1000;474;515
5.659;1000;475;517
5.66;1000;477;513
5.661;1000;479;515
5.662;1000;482;516
5.663;1000;483;514
5.664;1000;483;516
5.665;1000;484;513
5.666;1000;485;513
5.667;1000;485;517
5.668;1000;485;515
5.669;1000;486;513
5.67;1000;484;514
5.671;1000;483;516
5.672;1000;483;516
5.673;1000;482;518
5.674;1000;482;517
5.675;1000;481;514
5.676;1000;481;515
5.677;1000;480;515
5.678;1000;481;515
5.679;1000;486;516
5.68;1000;490;513
5.681;1000;492;515
5.682;1000;493;515
5.683;1000;494;515
5.684;1000;495;515
5.685;1000;495;515
5.686;1000;496;517
5.687;1000;495;513
5.688;1000;493;518
5.689;1000;494;515
5.69;1000;496;513
5.691;1000;497;515
5.692;1000;495;515
5.693;1000;495;517
5.694;1000;494;515
5.695;1000;493;512
5.696;1000;492;515
5.697;1000;491;514
5.698;1000;494;514
5.699;1000;497;515
5.7;1000;501;513
5.701;1000;502;514
5.702;1000;501;515
5.703;1000;499;515
5.704;1000;500;515
5.705;1000;499;514
5.706;1000;498;517
5.707;1000;498;512
5.708;1000;499;515
5.709;1000;498;512
5.71;1000;498;514
5.711;1000;497;515
5.712;1000;496;515
5.713;1000;495;516
5.714;1000;496;514
5.715;1000;496;513
5.716;1000;496;515
5.717;1000;496;515
5.718;1000;496;517
5.719;1000;500;516
5.72;1000;504;513
5.721;1000;508;513
5.722;1000;509;518
5.723;1000;508;513
5.724;1000;505;515
5.725;1000;504;512
5.726;1000;504;514
5.727;1000;505;515
5.728;1000;507;517
5.729;1000;508;514
5.73;1000;509;512
5.731;1000;508;512
5.732;1000;507;516
5.733;1000;507;514
5.734;1000;510;512
5.735;1000;512;513
5.736;1000;513;515
5.737;1000;513;515
5.738;1000;512;517
5.739;1000;512;515
5.74;1000;511;512
5.741;1000;513;515
5.742;1000;512;515
5.743;1000;513;514
5.744;1000;516;515
5.745;1000;519;512
5.746;1000;520;514
5.747;1000;519;514
5.748;1000;517;514
5.749;1000;517;513
5.75;1000;515;513
5.751;1000;515;516
5.752;1000;516;512
5.753;1000;518;516
5.754;1000;520;514
5.755;1000;521;511
5.756;1000;520;513
5.757;1000;521;514
5.758;1000;520;515
5.759;1000;522;514
5.76;1000;525;511
5.761;1000;526;513
5.762;1000;526;511
5.763;1000;528;516
5.764;1000;533;513
5.765;1000;534;512
5.766;1000;534;515
5.767;1000;534;511
5.768;1000;534;515
5.769;1000;534;515
5.77;1000;536;511
5.771;1000;536;514
5.772;1000;536;513
5.773;1000;537;516
5.774;1000;539;514
5.775;1000;541;511
5.776;1000;542;513
5.777;1000;543;513
5.778;1000;543;513
5.779;1000;545;513
5.78;1000;548;511
5.781;1000;549;513
5.782;1000;550;512
5.783;1000;551;516
5.784;1000;553;513
5.785;1000;554;515
5.786;1000;555;515
5.787;1000;555;513
5.788;1000;555;516
5.789;1000;555;515
5.79;1000;556;512
5.791;1000;557;513
5.792;1000;560;514
5.793;1000;561;514
5.794;1000;560;514
5.795;1000;560;513
5.796;1000;562;516
5.797;1000;564;516
5.798;1000;564;515
5.799;1000;567;518
5.8;1000;569;514
5.801;1000;572;516
5.802;1000;574;518
5.803;1000;574;519
5.804;1000;572;518
5.805;1000;569;515
5.806;1000;569;517
5.807;1000;568;518
5.808;1000;568;520
5.809;1000;569;518
5.81;1000;568;517
5.811;1000;568;519
5.812;1000;568;520
5.813;1000;567;519
5.814;1000;568;524
5.815;1000;571;520
5.816;1000;574;520
5.817;1000;574;526
5.818;1000;574;521
5.819;1000;574;524
5.82;1000;573;522
5.821;1000;572;524
5.822;1000;569;525
5.823;1000;567;528
5.824;1000;566;525
5.825;1000;566;524
5.826;1000;566;525
5.827;1000;564;529
5.828;1000;564;527
5.829;1000;565;526
5.83;1000;564;527
5.831;1000;564;530
5.832;1000;562;532
5.833;1000;558;534
5.834;1000;553;533
5.835;1000;551;531
5.836;1000;550;533
5.837;1000;547;534
5.838;1000;543;534
5.839;1000;539;536
5.84;1000;538;533
5.841;1000;541;536
5.842;1000;543;537
5.843;1000;541;538
5.844;1000;539;538
5.845;1000;536;538
5.846;1000;531;541
5.847;1000;527;538
5.848;1000;527;543
5.849;1000;527;542
5.85;1000;519;540
5.851;1000;512;543
5.852;1000;506;543
5.853;1000;503;545
5.854;1000;504;545
5.855;1000;505;542
5.856;1000;505;545
5.857;1000;505;547
5.858;1000;503;547
5.859;1000;500;547
5.86;1000;497;545
5.861;1000;497;548
5.862;1000;495;547
5.863;1000;493;552
5.864;1000;493;550
5.865;1000;492;552
5.866;1000;489;552
5.867;1000;486;552
5.868;1000;483;552
5.869;1000;480;550
5.87;1000;476;553
5.871;1000;474;553
5.872;1000;473;555
5.873;1000;472;556
5.874;1000;472;554
5.875;1000;472;554
5.876;1000;471;556
5.877;1000;469;556
5.878;1000;467;558
5.879;1000;465;557
5.88;1000;467;555
5.881;1000;467;556
5.882;1000;467;560
5.883;1000;469;556
5.884;1000;467;558
5.885;1000;466;556
5.886;1000;466;558
5.887;1000;465;559
5.888;1000;465;561
5.889;1000;464;558
5.89;1000;464;556
5.891;1000;463;557
5.892;1000;461;560
5.893;1000;460;558
5.894;1000;460;556
5.895;1000;461;558
5.896;1000;463;559
5.897;1000;463;560
5.898;1000;464;561
5.899;1000;461;559
5.9;1000;460;556
5.901;1000;462;558
5.902;1000;464;559
5.903;1000;464;558
5.904;1000;465;558
5.905;1000;465;556
5.906;1000;466;557
5.907;1000;465;557
5.908;1000;465;557
5.909;1000;467;556
5.91;1000;470;556
5.911;1000;471;558
5.912;1000;467;552
5.913;1000;463;556
5.914;1000;461;554
5.915;1000;460;551
5.916;1000;461;554
5.917;1000;463;553
5.918;1000;464;555
5.919;1000;464;552
5.92;1000;467;549
5.921;1000;465;550
5.922;1000;466;548
5.923;1000;468;552
5.924;1000;470;551
5.925;1000;469;547
5.926;1000;467;546
5.927;1000;467;548
5.928;1000;465;546
5.929;1000;467;547
5.93;1000;469;544
5.931;1000;467;546
5.932;1000;467;544
5.933;1000;467;545
5.934;1000;467;542
5.935;1000;467;540
5.936;1000;465;541
5.937;1000;466;541
5.938;1000;468;540
5.939;1000;472;538
5.94;1000;475;536
5.941;1000;476;536
5.942;1000;476;540
5.943;1000;474;536
5.944;1000;472;538
5.945;1000;470;532
5.946;1000;468;533
5.947;1000;465;533
5.948;1000;464;534
5.949;1000;465;532
5.95;1000;465;528
5.951;1000;467;530
5.952;1000;468;530
5.953;1000;467;528
5.954;1000;466;527
5.955;1000;470;525
5.956;1000;475;526
5.957;1000;475;524
5.958;1000;474;528
5.959;1000;475;524
5.96;1000;475;522
5.961;1000;475;525
5.962;1000;475;523
5.963;1000;476;524
5.964;1000;477;522
5.965;1000;478;518
5.966;1000;478;519
5.967;1000;477;519
5.968;1000;476;520
5.969;1000;476;518
5.97;1000;476;515
5.971;1000;476;516
5.972;1000;476;517
5.973;1000;477;515
5.974;1000;476;514
5.975;1000;477;512
5.976;1000;479;511
5.977;1000;480;516
5.978;1000;481;511
5.979;1000;481;514
5.98;1000;483;510
5.981;1000;485;512
5.982;1000;486;511
5.983;1000;485;512
5.984;1000;482;511
5.985;1000;480;507
5.986;1000;479;508
5.987;1000;479;510
5.988;1000;479;508
5.989;1000;481;505
5.99;1000;484;506
5.991;1000;486;507
5.992;1000;485;508
5.993;1000;483;509
5.994;1000;483;507
5.995;1000;484;503
5.996;1000;485;504
5.997;1000;484;504
5.998;1000;485;503
5.999;1000;487;504
6;1000;489;501
6.001;1000;489;502
6.002;1000;489;502
6.003;1000;488;502
6.004;1000;486;501
6.005;1000;485;500
6.006;1000;486;504
6.007;1000;487;499
6.008;1000;488;502
6.009;1000;488;500
6.01;1000;488;498
6.011;1000;491;499
6.012;1000;491;499
6.013;1000;489;501
6.014;1000;489;499
6.015;1000;487;496
6.016;1000;486;497
6.017;1000;487;498
6.018;1000;489;498
6.019;1000;489;497
6.02;1000;487;496
6.021;1000;486;497
6.022;1000;487;496
6.023;1000;490;500
6.024;1000;494;497
6.025;1000;496;498
6.026;1000;496;499
6.027;1000;497;498
6.028;1000;497;499
6.029;1000;498;497
6.03;1000;498;495
6.031;1000;497;496
6.032;1000;496;497
6.033;1000;496;499
6.034;1000;495;496
6.035;1000;496;495
6.036;1000;496;497
6.037;1000;495;497
6.038;1000;494;497
6.039;1000;495;497
6.04;1000;496;495
6.041;1000;496;496
6.042;1000;496;500
6.043;1000;497;496
6.044;1000;498;500
6.045;1000;500;495
6.046;1000;502;498
6.047;1000;505;498
6.048;1000;507;500
6.049;1000;507;498
6.05;1000;507;497
6.051;1000;506;499
6.052;1000;502;500
6.053;1000;499;499
6.054;1000;499;502
6.055;1000;500;498
6.056;1000;500;500
6.057;1000;499;501
6.058;1000;499;502
6.059;1000;500;501
6.06;1000;500;497
6.061;1000;502;500
6.062;1000;504;500
6.063;1000;505;503
6.064;1000;505;500
6.065;1000;503;499
6.066;1000;499;501
6.067;1000;498;502
6.068;1000;499;502
6.069;1000;499;505
6.07;1000;501;501
6.071;1000;500;500
6.072;1000;500;505
6.073;1000;503;502
6.074;1000;506;504
6.075;1000;507;502
6.076;1000;508;503
6.077;1000;507;503
6.078;1000;506;503
6.079;1000;506;505
6.08;1000;508;502
6.081;1000;510;504
6.082;1000;512;505
6.083;1000;512;504
6.084;1000;511;508
6.085;1000;510;504
6.086;1000;509;504
6.087;1000;509;509
6.088;1000;508;505
6.089;1000;508;508
6.09;1000;508;505
6.091;1000;505;507
6.092;1000;502;508
6.093;1000;504;510
6.094;1000;505;508
6.095;1000;507;506
6.096;1000;510;508
6.097;1000;514;509
6.098;1000;514;509
6.099;1000;512;509
6.1;1000;512;508
6.101;1000;513;511
6.102;1000;517;509
6.103;1000;519;513
6.104;1000;519;510
6.105;1000;519;513
6.106;1000;518;513
6.107;1000;520;511
6.108;1000;521;514
6.109;1000;522;513
6.11;1000;523;510
6.111;1000;522;513
6.112;1000;520;514
6.113;1000;517;513
6.114;1000;514;513
6.115;1000;512;513
6.116;1000;513;515
6.117;1000;513;515
6.118;1000;512;515
6.119;1000;510;518
6.12;1000;512;514
6.121;1000;516;516
6.122;1000;519;517
6.123;1000;519;518
6.124;1000;517;517
6.125;1000;516;514
6.126;1000;515;516
6.127;1000;514;517
6.128;1000;514;519
6.129;1000;516;517
6.13;1000;518;515
6.131;1000;518;518
6.132;1000;515;519
6.133;1000;519;518
6.134;1000;521;521
6.135;1000;521;517
6.136;1000;520;517
6.137;1000;519;523
6.138;1000;520;518
6.139;1000;522;520
6.14;1000;523;517
6.141;1000;524;519
6.142;1000;526;520
6.143;1000;527;522
6.144;1000;527;519
6.145;1000;526;518
6.146;1000;523;518
6.147;1000;518;522
6.148;1000;516;520
6.149;1000;516;519
6.15;1000;515;519
6.151;1000;516;521
6.152;1000;519;522
6.153;1000;521;524
6.154;1000;524;522
6.155;1000;526;519
6.156;1000;527;521
6.157;1000;530;522
6.158;1000;529;521
6.159;1000;525;523
6.16;1000;519;520
6.161;1000;517;521
6.162;1000;518;522
6.163;1000;519;522
6.164;1000;518;521
6.165;1000;519;521
6.166;1000;520;524
6.167;1000;519;519
6.168;1000;519;524
6.169;1000;518;522
6.17;1000;516;519
6.171;1000;515;522
6.172;1000;515;521
6.173;1000;515;523
6.174;1000;517;522
6.175;1000;521;519
6.176;1000;521;520
6.177;1000;522;522
6.178;1000;522;521
6.179;1000;519;520
6.18;1000;519;519
6.181;1000;520;521
6.182;1000;521;521
6.183;1000;521;521
6.184;1000;520;520
6.185;1000;519;519
6.186;1000;517;523
6.187;1000;516;518
6.188;1000;517;522
6.189;1000;519;518
6.19;1000;520;520
6.191;1000;523;521
6.192;1000;521;521
6.193;1000;517;523
6.194;1000;516;519
6.195;1000;515;519
6.196;1000;515;521
6.197;1000;516;521
6.198;1000;518;523
6.199;1000;521;521
6.2;1000;524;518
6.201;1000;525;518
6.202;1000;524;523
6.203;1000;523;518
6.204;1000;518;520
6.205;1000;520;517
6.206;1000;524;519
6.207;1000;524;519
6.208;1000;523;521
6.209;1000;523;518
6.21;1000;521;516
6.211;1000;519;517
6.212;1000;516;520
6.213;1000;515;518
6.214;1000;517;521
6.215;1000;519;516
6.216;1000;520;519
6.217;1000;520;518
6.218;1000;520;519
6.219;1000;519;519
6.22;1000;518;515
6.221;1000;516;517
6.222;1000;518;517
6.223;1000;521;517
6.224;1000;524;518
6.225;1000;524;515
6.226;1000;521;516
6.227;1000;519;516
6.228;1000;516;516
6.229;1000;515;516
6.23;1000;518;515
6.231;1000;520;519
6.232;1000;520;513
6.233;1000;518;518
6.234;1000;517;516
6.235;1000;517;514
6.236;1000;515;515
6.237;1000;515;515
6.238;1000;515;517
6.239;1000;516;516
6.24;1000;520;512
6.241;1000;523;514
6.242;1000;523;512
6.243;1000;521;516
6.244;1000;523;516
6.245;1000;524;512
6.246;1000;525;512
6.247;1000;525;514
6.248;1000;522;512
6.249;1000;519;515
6.25;1000;518;511
6.251;1000;518;513
6.252;1000;518;513
6.253;1000;519;514
6.254;1000;519;511
6.255;1000;518;510
6.256;1000;516;512
6.257;1000;515;512
6.258;1000;513;511
6.259;1000;514;511
6.26;1000;518;509
6.261;1000;519;510
6.262;1000;519;514
6.263;1000;519;510
6.264;1000;519;509
6.265;1000;519;507
6.266;1000;519;511
6.267;1000;519;508
6.268;1000;519;508
6.269;1000;518;508
6.27;1000;515;507
6.271;1000;513;508
6.272;1000;512;509
6.273;1000;510;508
6.274;1000;509;508
6.275;1000;509;505
6.276;1000;510;508
6.277;1000;512;508
6.278;1000;514;508
6.279;1000;518;507
6.28;1000;521;506
6.281;1000;524;508
6.282;1000;524;508
6.283;1000;524;505
6.284;1000;526;505
6.285;1000;525;504
6.286;1000;521;506
6.287;1000;519;507
6.288;1000;516;506
6.289;1000;515;509
6.29;1000;515;504
6.291;1000;516;507
6.292;1000;518;507
6.293;1000;517;506
6.294;1000;517;507
6.295;1000;519;505
6.296;1000;521;505
6.297;1000;520;510
6.298;1000;519;506
6.299;1000;518;510
6.3;1000;519;506
6.301;1000;522;506
6.302;1000;526;508
6.303;1000;527;507
6.304;1000;527;508
6.305;1000;528;505
6.306;1000;528;508
6.307;1000;528;509
6.308;1000;529;508
6.309;1000;530;511
6.31;1000;531;507
6.311;1000;531;508
6.312;1000;529;506
6.313;1000;527;510
6.314;1000;527;510
6.315;1000;527;507
6.316;1000;527;509
6.317;1000;528;509
6.318;1000;529;511
6.319;1000;530;510
6.32;1000;530;507
6.321;1000;531;509
6.322;1000;531;507
6.323;1000;529;511
6.324;1000;529;510
6.325;1000;528;507
6.326;1000;526;508
6.327;1000;521;512
6.328;1000;518;508
6.329;1000;516;510
6.33;1000;512;508
6.331;1000;507;509
6.332;1000;502;509
6.333;1000;501;510
6.334;1000;507;508
6.335;1000;510;507
6.336;1000;510;508
6.337;1000;510;509
6.338;1000;509;509
6.339;1000;511;508
6.34;1000;512;507
6.341;1000;513;508
6.342;1000;513;511
6.343;1000;514;508
6.344;1000;515;511
6.345;1000;517;506
6.346;1000;515;506
6.347;1000;513;509
6.348;1000;512;508
6.349;1000;511;510
6.35;1000;510;507
